Lead I,Lead II,Lead III,aVR,aVL,aVF,V1,V2,V3,V4,V5,V6
0.3158050396309003,0.25495111556781147,0.23558377956569712,0.7215463108320251,0.7765894236482471,0.2467996853321891,0.6959497363401773,0.7594191380991945,0.7937016105321617,0.763022133466467,0.7213001383125864,0.6197538251132576
0.3092984739145866,0.25526447731260965,0.2389742485805775,0.7230834641548928,0.7687330824585726,0.24849221673937402,0.7039530274131418,0.7670772676371781,0.7998758616183725,0.7681477783325013,0.721958769676612,0.613086588597316
0.32266650893174026,0.2667752987381967,0.24766568899173913,0.7103937728937729,0.7655641381131576,0.2588857898877208,0.6932570402782453,0.7543257594913847,0.7960863741792167,0.7798635380262938,0.7434630837120463,0.6364219164031114
0.3353838873772626,0.28240160441213336,0.26200791109436805,0.6946297749869179,0.7550670099689707,0.27416624949343255,0.6616926586633757,0.7175161651555105,0.7801443925386299,0.7932101847229155,0.7781070934597907,0.6793315668005813
0.3385188690405773,0.29173978440711956,0.2726367623711757,0.6864534275248562,0.74377764573843,0.2842022455839233,0.6254908560529564,0.6740960156052451,0.7551533762373004,0.7962056914628057,0.8063294474082856,0.7198051115479955
0.3575062108127292,0.2902565388150748,0.2620617280628582,0.6823652537938253,0.7673466693074535,0.2786717204224177,0.5979281199745691,0.646497850666474,0.7189245695991638,0.7735396904643034,0.8075808469999343,0.7460466706556116
0.39530344256476996,0.2881883512994067,0.24223017517423245,0.6735347985347986,0.8127682049250675,0.2687072397434981,0.5880175025244027,0.6428132789076328,0.6902420698441737,0.7389915127309036,0.7837713231904103,0.7558765706470639
0.41298947119365903,0.2969833709367427,0.24548610176788743,0.6617608581894298,0.8186439558988577,0.27516746525542923,0.5786304648640562,0.638045009572662,0.6619842540263304,0.7038775170577467,0.7469208983731805,0.7554491836909139
0.43262746953744236,0.32150915016294807,0.26816995398649196,0.6371336996336997,0.8017429193899781,0.2991966435433503,0.5435880175025245,0.599212513094679,0.6176537845872399,0.6809452487934763,0.7368109069353883,0.7781861697580991
0.44220986631964987,0.3490432021392162,0.29927616177380734,0.6129317111459969,0.7689311414801611,0.32868483158120576,0.4784397322263361,0.5218726294115522,0.5525138022279573,0.6594108836744882,0.7400711321873148,0.8162236088554577
0.41878622974092045,0.3462647280020055,0.306353093130264,0.6215659340659341,0.7472106687792962,0.330258170635772,0.4282882680728524,0.4469168803959109,0.4322302440299239,0.5501414544849391,0.651649871566884,0.7858791349688009
0.3272802555305809,0.29761009442633907,0.2853106584506095,0.684981684981685,0.7219911533637023,0.29316551050084627,0.4822169864243241,0.47718816602246866,0.3496455522524583,0.4068563820935263,0.4993743002041757,0.665398752030088
0.2527505027800781,0.25912927216512077,0.2696499206199715,0.7357077446363162,0.6996104839242093,0.26427328422608404,0.575040203448147,0.5650037929415164,0.3836529352193656,0.38685305375270423,0.4554435882236712,0.5922728438328062
0.20667218738909265,0.24329405866131862,0.27021499878911825,0.7608254840397698,0.6731365947052221,0.255500727073351,0.6616178615505443,0.6546978289925226,0.47469863774460164,0.4570477616907971,0.49489560692880197,0.560731686468929
0.17680113569147055,0.2224659480237319,0.25697602454053764,0.7853872318158033,0.6727404766620452,0.23774106653317126,0.7457646134859195,0.7442112487808403,0.5563032896671132,0.5190214677983025,0.5275637225844695,0.5246602273698606
0.16922985922157818,0.20721567644355313,0.240777117024998,0.7994178440607013,0.6883871393675314,0.22186464516436627,0.783013575675979,0.7883899866343966,0.595178203913626,0.5513729405891163,0.5488375156424949,0.5093597743396872
0.1866792854607832,0.20658895295395668,0.23203185964534623,0.7951007326007326,0.7088532382650029,0.2176213974111421,0.7817420247578445,0.7947476790810245,0.6183071444905426,0.5807289066400398,0.5725811763156161,0.5138045986836481
0.21566307819708982,0.21131026990891616,0.22492801980464444,0.783359497645212,0.7337426553112827,0.21719230494171496,0.7833501626837204,0.8042480944984286,0.6534252392930647,0.617973040439341,0.6041625502206416,0.534532866056928
0.24056547971134515,0.21527951867635994,0.2187121599440304,0.7733843537414967,0.7552650689905591,0.21669169706071661,0.7772541979879578,0.8052595455694831,0.6804743392897978,0.6468963221833915,0.6300138312586446,0.5560731686468929
0.25523482787176155,0.2181624467285034,0.21577913516131642,0.767072213500785,0.7670165709381395,0.21704927411857255,0.7673809790942071,0.799877180941372,0.6966123289013755,0.6640372774172074,0.6451952841994336,0.5674416616804856
0.26558618242044246,0.2221316954959472,0.21615585394074757,0.7610871271585558,0.7723641645210272,0.2194569596414694,0.7570963760798832,0.7961203626774555,0.7135670183920814,0.6808453985688133,0.6601132845946124,0.5767586973245576
0.28563823494617296,0.23180412801871814,0.21949250598713776,0.7479722658294088,0.7794942892982109,0.22646546997544642,0.7497662590224018,0.7953617743741647,0.7333311554669891,0.7005491762356465,0.6772377000592769,0.5882554064449953
0.3069324500177452,0.24452661485752486,0.22619271856416331,0.7321428571428573,0.7831253713606654,0.23669217383012706,0.7484573095478516,0.7984322508398657,0.7563620920584104,0.7234814444999167,0.6963050780478166,0.6049662364304642
0.31752040695611033,0.2546586446059998,0.23442671474315854,0.7212846677132392,0.7789661319073083,0.24610836968700092,0.738023112307865,0.7919661886356247,0.7723694096893274,0.7416209019803627,0.7120792992162287,0.6202666894606377
0.32562403880279195,0.2627224868388067,0.2411269273201841,0.7127158555729984,0.7752690301709909,0.25368900331354743,0.7070945061520626,0.7671133908897158,0.7789356767175198,0.7518721917124312,0.7216623855628005,0.6296264638003248
0.32213415355495095,0.26483245592044785,0.2454322847993973,0.7120290423861853,0.7680068660460816,0.25678800448163247,0.6841691910692248,0.7465592601957881,0.7785436607755382,0.7532700948577133,0.7232760324046631,0.6321907855372254
0.31793446113805757,0.2643937494777304,0.2468046174958965,0.7135661957090529,0.7639796659404502,0.2571694200100122,0.6780358278170463,0.7400931979915472,0.7786089967658685,0.7534365118988184,0.7236712112230784,0.6324044790153005
0.32414527386726605,0.26886437703685134,0.2497107337943654,0.7083333333333334,0.7639136462665874,0.26098357529380917,0.6805789296533153,0.7431636744572482,0.7833785240599785,0.7586287235812947,0.7286438780214713,0.6383451577057868
0.3373950076895777,0.2732514414640261,0.24933401501493424,0.7012362637362638,0.7717039677823991,0.2633197454051348,0.6815512921201242,0.7450059603366688,0.78733135147496,0.763488101181561,0.7347362181387078,0.6439011881357382
0.33491068259789425,0.27208155761677943,0.24895729623550308,0.7028388278388279,0.7708457120221825,0.26250923740732796,0.6775496465836419,0.7420799768811184,0.786612655581327,0.7636212348144449,0.7353948495027333,0.6436447559620481
0.3232580149059506,0.2691150664326899,0.2504372628689826,0.7083660387231816,0.7625272331154683,0.26146034470428375,0.672538240023935,0.7358306541921035,0.7829538401228318,0.7601597603594606,0.7317723770005928,0.638943499444397
0.32006388264521474,0.26903150330074366,0.25178268708123674,0.7093144950287807,0.7590281904007394,0.2620086295263296,0.6703691237518232,0.7330491637467037,0.7810590964032538,0.7586620069895157,0.7301916617269314,0.6358235746645012
0.3269845025434757,0.2729589705022144,0.25369318946263764,0.7043432757718472,0.760546642899584,0.2651076306944147,0.6722016530161936,0.7359390239497166,0.7848485838424096,0.7627558662006989,0.7348350128433117,0.6424053337892127
0.3372767064947356,0.2755285368095596,0.25234776525038344,0.6995028780743067,0.7679408463722189,0.265965815633269,0.6750065447473729,0.7387927609001915,0.7887034072718958,0.765917789981694,0.7382598959362445,0.6458244294384136
0.33313616467526325,0.2745675607921785,0.25296666038802035,0.701399790685505,0.7649039413745296,0.2656797539869842,0.6722016530161936,0.7370588447783838,0.7875273594459509,0.765518389083042,0.7376341961404203,0.6459099068296436
0.31953152726842543,0.27168463274003507,0.25544224093856793,0.7074175824175826,0.754274773882617,0.26513146916493835,0.6681626089232956,0.732073835928187,0.7831825160889877,0.7622898984856049,0.7348350128433117,0.6426190272672879
0.32177924997042473,0.27118325394835796,0.2538008233996179,0.7071886446886448,0.7575097379018947,0.2641302534029417,0.6651707244100378,0.7295090849980133,0.7809610924177584,0.7606257280745548,0.7334518869788579,0.639584579878622
0.3311250443629481,0.2745048884432188,0.2538008233996179,0.7019884877027734,0.7627913118109196,0.2660373310448402,0.6670032536744082,0.7323266986959506,0.7837705400019601,0.7640872025295389,0.7371402226174011,0.6436874946576631
0.3425411096652077,0.27807721233391824,0.25320883674622613,0.6960361067503925,0.7698554169142404,0.2678013778635963,0.6702569280825761,0.7369143517682333,0.7868086635523179,0.7678815110667332,0.7404992425739313,0.6482177963928542
0.34112149532710284,0.2769282192696582,0.2523746737346286,0.6973116169544741,0.7701194956096916,0.26677632363107584,0.6693593627285988,0.7359390239497166,0.7858286236973637,0.7671492760858711,0.7394454323914905,0.6471065903068639
0.33213060451910564,0.27400350965154174,0.25269757554556954,0.7020866038723181,0.7646398626790782,0.26525066151755705,0.6647593402894648,0.7297980710183145,0.7812551043742445,0.7624895989349308,0.7352960547981295,0.6420634242242927
0.32544658701052886,0.27400350965154174,0.2557382342652639,0.7039508110936683,0.7572456592064435,0.26660945433740973,0.6624032312352743,0.7267637178051513,0.7793276926595015,0.7605924446663337,0.7344398340248963,0.6406530472689974
0.33266295989589495,0.27747137962730845,0.2569491160562926,0.6992412349555208,0.7597544068132303,0.2691124937424015,0.6646845431766334,0.7295090849980133,0.7825944921760152,0.764020635713097,0.7390502535730752,0.6463372937857936
0.34236365787294454,0.2802707445475056,0.25611495304469506,0.6943681318681318,0.7662243348517858,0.2703282557391118,0.6673772392385654,0.7329046707365532,0.7857632877070335,0.7679147944749543,0.7427385892116183,0.651807846824515
0.3366852005205253,0.2792470961811649,0.257406560288459,0.6967556253270539,0.7614048986598005,0.2703282557391118,0.6653203186357007,0.7309540150995195,0.7831171800986574,0.7660176402063571,0.7412566686425608,0.6504829472604496
0.3275760085176861,0.27726247179744296,0.2589403438904287,0.7008110936682367,0.7544728329042053,0.26987532479916093,0.6595609409476794,0.724993678430806,0.777040932997942,0.7599600599101347,0.7348350128433117,0.6440721429181981
0.32970543002484326,0.27788919528703937,0.2588058014692033,0.6997318158032444,0.7557932263814616,0.2701852249159694,0.6575040203448147,0.7221760647328686,0.7743948253895658,0.7581627558662006,0.7336165448198643,0.6440294042225831
0.33562048976694664,0.28073034177320966,0.25977450690202625,0.6958725798011512,0.7579058559450715,0.2722353333810103,0.6592991510527694,0.7247046924105046,0.7770736009931072,0.7614910966883008,0.7377000592768228,0.6494144798700744
0.339642730391577,0.2832372357315952,0.2611737480827705,0.6927982731554161,0.758434013335974,0.27426160337552746,0.6606454990837354,0.7267998410576888,0.7791643526836758,0.764719587285738,0.7405321741421327,0.6528763142148902
0.33698095350763047,0.28304921868471633,0.2621424535155935,0.6936813186813187,0.7557932263814616,0.2745953419628597,0.6584015856987921,0.7240544738648268,0.776093561138153,0.7626560159760359,0.7381611012316407,0.65227797247628
0.3276351591151071,0.2820882426673352,0.26515620375104276,0.6970172684458399,0.7468805704099821,0.27538201149014285,0.6532779834698381,0.7163602210743056,0.7688739342066578,0.7560326177400565,0.7327932556148324,0.6458244294384136
0.3219567017626878,0.28233893206317373,0.26806232004951164,0.6983908948194664,0.7401465636759753,0.27681231972156667,0.6486779610307042,0.711339088971571,0.764398418869034,0.7528041271426194,0.7304221827043403,0.6431318916146679
0.33248550810363187,0.2854934402941422,0.2673357909748944,0.6930272108843538,0.7469465900838449,0.278290304894038,0.6474438086689854,0.7107249936784308,0.7641697429028781,0.7538026293892495,0.7320028979780018,0.6465937259594837
0.3368035017153674,0.2897551600233977,0.27088771089524527,0.6884811616954475,0.7449659998679605,0.28229516794202486,0.6498747148360073,0.712097677274862,0.7658684786514651,0.7554667998002995,0.734637423434104,0.652320711171895
0.3287590204661067,0.2895880337595053,0.2743050883943708,0.6908359497645213,0.7363174225919323,0.283701637702925,0.6468828303227495,0.7091355705667738,0.7620789912123094,0.7534365118988184,0.7339787920700784,0.6538165655184205
0.3183485153200048,0.2869975766691736,0.2757043295751151,0.6957417582417583,0.7287911797715719,0.2828434527640707,0.6399266988294252,0.700971715493263,0.7526379406095848,0.745248793476452,0.726700915497596,0.647619454654244
0.32343546669821366,0.28850171304420485,0.2753276107956839,0.6931580324437467,0.7320261437908495,0.2835586068797826,0.6337185384644154,0.6939276812484196,0.7452223057070987,0.7387252454651355,0.7208390963577685,0.643815710744508
0.3294096770377381,0.2924918525946352,0.27774937437774133,0.6883830455259027,0.7324222618340265,0.28689599275310496,0.6330453644489323,0.6921576418740744,0.743588905948842,0.7385921118322515,0.7207073700849634,0.6442003590050431
0.3247959304388975,0.2942884599314782,0.2821623657939349,0.6882522239665098,0.7244338812966263,0.2898758015685714,0.632820973110438,0.6903153559946539,0.7413348142824475,0.7380595773007156,0.7213989330171904,0.648132319001624
0.3173429551638472,0.29493607420406115,0.2863869978204128,0.6898220826792255,0.71512510728197,0.2921166177978021,0.6283705448969671,0.6846440053462415,0.7339518473751266,0.7326010983524712,0.7172495554238293,0.6476621933498591
0.30432982373121975,0.2937870811398011,0.2908268977208514,0.6943027210884355,0.7023833102264474,0.2934277336766073,0.6186469202288792,0.672831701766427,0.7213420012413838,0.7213513063737725,0.7078311269182638,0.6417642533549877
0.3032651129776411,0.29520765438288626,0.2931679358501736,0.6934850863422293,0.6989502871855812,0.29528713437745835,0.6108306219379932,0.6637286421269372,0.7098755349384208,0.7121650857047761,0.700849634459593,0.6383451577057868
0.3098899798887969,0.29992897133784574,0.2962085945698679,0.6879578754578756,0.6988842675117185,0.29931583589596894,0.6070159691835896,0.6594299750749558,0.7038972918232008,0.70830421035114,0.6995323717315418,0.6406103085733823
0.3105406364604283,0.303647530709451,0.30070231143879667,0.6848835688121403,0.6937347329504192,0.3034160528260507,0.6066045850630166,0.656865224144782,0.6991277645290909,0.7051755699783657,0.6978528617532768,0.6424480724848278
0.3071690524074293,0.30398178323723574,0.30266663078868766,0.6855376766091053,0.6894434541493364,0.3044887839996186,0.6016305770597256,0.6487374923238088,0.6886740060762472,0.6969212847395573,0.6915629322268326,0.6411659116163775
0.29232225245474985,0.30295813487089496,0.3081290530904394,0.6904434850863423,0.6744569881824783,0.30632434622994587,0.5923931336250421,0.6356969981577141,0.6737447322857797,0.6844732900649025,0.6817163933346506,0.634455936404821
0.29232225245474985,0.30579928135706524,0.3117616984635256,0.6882195185766614,0.67003367003367,0.30956637822117333,0.5846142338905719,0.6258353502149334,0.6626702819247983,0.6752537859876852,0.6736810906935388,0.6293700316266347
0.2928546078315391,0.30876577254115484,0.3153405268681216,0.685766614338043,0.6658744305803128,0.31283224868292453,0.5804629941284267,0.621428313405339,0.6543072751625233,0.6686303877517057,0.6695646446683791,0.6294555090178648
0.2936827161954336,0.31179493607420405,0.3188655383042273,0.6831501831501832,0.6620452894962697,0.3161219576151994,0.5788548562025506,0.618682946212477,0.6477083401391657,0.6639041437843235,0.6673252980306922,0.6333019916232157
0.2859931385306992,0.3101027826522938,0.3201840540322364,0.6866169544740973,0.6561695385224796,0.31574054208681973,0.5716369348143162,0.6088212982696962,0.6355231779425696,0.6530204692960558,0.6593229269577817,0.6284725190187196
0.2765290429433338,0.3092253697668588,0.3233592551731561,0.6899201988487704,0.646926784181686,0.3166464039667215,0.5604547664460152,0.595202832062999,0.6193198523406619,0.639074721251456,0.6483896463149575,0.6190272672878024
0.27345321187744004,0.3112517757165538,0.3273686193256734,0.6891679748822607,0.640324816795405,0.3195785358411405,0.55577994689405,0.5868222374742622,0.6082454019796806,0.6292228324180394,0.6415069485608905,0.6159073425079067
0.27930912102212235,0.31528369683295726,0.32989801684471115,0.6843929879644166,0.6404568561431306,0.32301127559655773,0.5553311642170613,0.5850883213524546,0.6029858547580936,0.6256615077383924,0.6401896858328393,0.6194119155483374
0.2762332899562286,0.31576418484164787,0.3318892446788473,0.6848508634222921,0.6363636363636364,0.32415552218169685,0.5552937656606455,0.5839323772712495,0.5987063473914606,0.6222333166916292,0.639201738786801,0.6221899307633131
0.27144209156512483,0.3132155093172892,0.330812905309044,0.6881868131868133,0.6349772232125173,0.3222246060692746,0.5510303302292532,0.5786945056532891,0.590637352585672,0.6149442502912298,0.6320555884871238,0.6181297546798872
0.262924405536496,0.3106877245759171,0.33143180044668086,0.69253663003663,0.629497590281904,0.32105652101361176,0.5457945323310521,0.5714698551457573,0.5811963019829474,0.6051589282742552,0.6222090495949417,0.6091118899051202
0.2597302732757601,0.3075749979109217,0.32887549444339803,0.6958398744113031,0.6308179837591601,0.31814822760971656,0.543251430494783,0.5681465159122927,0.5757734147855347,0.5993343318355798,0.6160837779095041,0.6026583468672536
0.26736070034307347,0.3084941923623297,0.326588273282566,0.6930272108843538,0.6378820888624809,0.317671458199242,0.5493473951905457,0.5742152223386194,0.5801835941328282,0.6021634215343651,0.6177632878877692,0.6055218394734593
0.2743404708387555,0.308619537060249,0.32357452304711676,0.6909667713239142,0.6454743513567042,0.3164080192614842,0.5578368674969146,0.5838962540187119,0.587795237006305,0.6076551838908303,0.622011460185734,0.6100521412086504
0.2675381521353366,0.30421158185008773,0.3209913085595889,0.6962977498691786,0.6448801742919389,0.3127368948008296,0.5635588466285202,0.5907957952534046,0.5932834601940479,0.6107505408553835,0.6226371599815583,0.6088127190358151
0.2607949840293387,0.2986755243586529,0.31692812743858145,0.7025117739403454,0.6460685284214696,0.3077784929318935,0.5654287744493063,0.5932521764259654,0.5955702198556075,0.6103844233649526,0.6200684976618586,0.6024019146935636
0.26901691707086245,0.2958343778724827,0.3095282942711838,0.7024790685504972,0.6597346009110715,0.3028677680040049,0.5693182243165414,0.5997543618827439,0.6014831269804972,0.6135796305541688,0.6205295396166765,0.600094025130353
0.27581923577428136,0.29478983872315534,0.3050883943707451,0.701399790685505,0.668977355251865,0.3003170516579657,0.5815101537080669,0.6148538814434852,0.6156610368821666,0.6250291229821934,0.6290258842126062,0.6023164373023335
0.2849284277771206,0.29405866131862624,0.3000026908484245,0.6994701726844585,0.6803327391562686,0.2976471429593077,0.5950484311305585,0.6308926055702057,0.6334977622423312,0.638908304210351,0.6390041493775934,0.6089836738182751
0.2859339879332781,0.2900476309852093,0.2943519091569572,0.7023155416012559,0.6877929623027662,0.2928556103840378,0.6046224615729834,0.6437886067261497,0.6463036163470648,0.6491263105341987,0.6448659685174208,0.6096247542525002
0.28906896959659295,0.2857650204729673,0.2874633371902161,0.7048011512297226,0.697959992077639,0.28734892369305587,0.6083997157709713,0.6493154643644115,0.6547972950900003,0.654285238808454,0.6471711782915103,0.6048380203436191
0.2917307464805395,0.28384306843820506,0.2837230578801496,0.7055860805860807,0.7040338020730177,0.2846074995828268,0.6139347021204982,0.6575515659429976,0.6660350854268073,0.6617740056581792,0.6520450503852994,0.6056073168646894
0.3024370046137467,0.2843235564468956,0.2794715173694266,0.7022174254317112,0.7152571466296956,0.2830103220577368,0.6252290661580463,0.6722898529783622,0.6824997549900363,0.6752205025794641,0.6622209049594943,0.6107786990341055
0.31479947947474274,0.2838639592211916,0.27328256599305767,0.6991758241758242,0.7297154552056513,0.2800066747717467,0.6362242417442687,0.6867391539934256,0.6990624285387607,0.6894990847062739,0.6728248699203057,0.6188135738097273
0.31610079261800544,0.2809810311690482,0.26897720851384443,0.7010727367870225,0.7357232455271671,0.27645474266371073,0.6438909458094918,0.6953003648448507,0.7111169187546962,0.6997503744383424,0.6797075676743726,0.6227455338063083
0.31071808825269137,0.278181666248851,0.2678201436913059,0.7047357404500262,0.7341387733544595,0.27433311878709865,0.6462844534200981,0.6986237040783152,0.7184672176668518,0.7043767681810618,0.682111572153066,0.6201812120694077
0.3121968531882172,0.27784741372106625,0.26671689583725755,0.7046049188906333,0.7363174225919323,0.2736656416124342,0.6500243090616703,0.7044756709894159,0.7270262324001177,0.7105674821101681,0.6866890601330436,0.620993247286093
0.3253874364131078,0.2794142224450572,0.26273444016898534,0.6997318158032444,0.7485970819304151,0.2727836182030561,0.6566064549908374,0.7137593468915941,0.7387867106595668,0.7209186220668996,0.6951854047289732,0.6266347551072742
0.33911037501478764,0.2805423247263307,0.2579447299733606,0.695054945054945,0.7621311150722914,0.27130563303058475,0.6629642095815101,0.7223928042480946,0.750514520923851,0.7315027458811783,0.7030231179608772,0.6336439011881357
0.3422453566781025,0.27901729756831284,0.25458116944272535,0.6953819989534277,0.7680068660460816,0.2689456244487354,0.6658438984255208,0.7268359643102265,0.7575054718891902,0.7382259943418205,0.7074030165316473,0.6356098811864263
0.32970543002484326,0.27648951282694073,0.2570298415090278,0.7008110936682367,0.7580378952927972,0.26858804739087944,0.6653203186357007,0.726041252754398,0.7594328836039332,0.7392910634048926,0.7083909635776856,0.6317633985810753
0.3276943097125281,0.2754867552435865,0.2566262142453516,0.702184720041863,0.757377698554169,0.26784905480464377,0.6636373835969932,0.7254632807137955,0.7615236352945021,0.7407222499583958,0.7077652637818613,0.6291990768441748
0.3386963208328404,0.2761970418651291,0.25253612464009906,0.6985544217687076,0.7685350234369841,0.26644258504374363,0.6665544709974195,0.7303399198063794,0.7675998823952175,0.746580129805292,0.7118158466706185,0.6328318659714506
0.34289601324973384,0.2775131611932815,0.2523208567661384,0.6963631606488749,0.7711758103914966,0.2670862237478843,0.672276450129025,0.7379619260918253,0.7759628891574925,0.7555666500249625,0.718994928538497,0.6406530472689974
0.33893292322252455,0.2767193114397927,0.25310120280924575,0.6980965463108322,0.7680068660460816,0.2669670313952657,0.6738845880549011,0.7408156630423003,0.7788050047368593,0.7587618572141785,0.7216294539945993,0.6424480724848278
0.33485153200047324,0.2754449736776134,0.25328956219896137,0.7002223966509681,0.7654320987654321,0.26634723116164866,0.6713788847750478,0.73788967958675,0.7782823168142172,0.7568647029455816,0.7203780544029507,0.6396700572698522
0.3388146220276825,0.2758836801203309,0.25210558889217777,0.6987833594976454,0.7691292005017494,0.2660611695153639,0.6695463555106774,0.7357945309395657,0.7784129887948777,0.7560991845564986,0.7198511493117302,0.6378322933584067
0.34325091683426007,0.27841146486170304,0.25334337916745153,0.6955782312925171,0.7701194956096916,0.26806360103935734,0.674183776506227,0.7410324025575263,0.7841952239391069,0.7609585621567648,0.7243957057235066,0.6429181981365929
0.35040813912220514,0.280897468037102,0.2532626537147163,0.6916535845107274,0.7741466957153231,0.26942239385921,0.6799057556378325,0.7475707112668424,0.7894547711606938,0.766084207022799,0.7291049199762892,0.6470211129156338
0.3471548562640483,0.27889195287039353,0.2521594058606679,0.6941391941391941,0.7736845579982835,0.2678013778635963,0.678073226373462,0.746775999711014,0.7898794550978406,0.7663171908803461,0.7293025093854969,0.6463800324814087
0.3381048148586301,0.27628060499707524,0.2529128434195302,0.6986852433281004,0.7677427873506305,0.26663329280793346,0.674445566401137,0.7420438536285808,0.7872986834797948,0.7636212348144449,0.725976420997168,0.6420634242242927
0.33715840529989355,0.27757583354224113,0.25501170519064664,0.6979330193615908,0.7646398626790782,0.26830198574459463,0.6727626313624295,0.7403460607593108,0.7859266276828593,0.7624895989349308,0.7250214055193308,0.6418069920506027
0.34443392878268075,0.2793097685301245,0.2539084573365983,0.6945316588173732,0.7700534759358287,0.26882643209611673,0.6753057331986986,0.7434526604775495,0.7891607592042077,0.7663171908803461,0.7281828360666535,0.6450123942217284
0.3508221933041524,0.2812108297819002,0.25347792158867694,0.6912938252223968,0.7741466957153231,0.26970845550549477,0.6801301469763268,0.7487989018531229,0.7938649505079873,0.7724080545847893,0.7341105183428834,0.6489870929139243
0.34792381403052175,0.2801871814155595,0.25347792158867694,0.6928963893249608,0.7725622235426156,0.2691124937424015,0.679830958525001,0.7476429577719178,0.793538270556336,0.7719088034614743,0.7339458605018772,0.6473202837849389
0.3412397965219449,0.2777847413721066,0.2533971961359417,0.6966248037676609,0.7688651218062983,0.2677298624520251,0.6754553274243614,0.7428385651844092,0.7901407990591618,0.7669828590447662,0.7296976882039122,0.6406957859646124
0.343132615639418,0.27857859112559535,0.25361246400990234,0.6954801151229723,0.769657357892652,0.26825430880354717,0.672687834249598,0.7404544305169238,0.7881153833589233,0.7643201863870859,0.7277217941118356,0.6392854090093171
0.34526203714657516,0.28002005515166706,0.254473535505745,0.6937467294610152,0.7697893972403776,0.2694700708002575,0.674445566401137,0.7429830581945598,0.7900754630688316,0.7671492760858711,0.730125798590529,0.6426190272672879
0.3478055128356797,0.28210913345032174,0.2560073191077147,0.6914246467817896,0.7693932791972007,0.27132947150110853,0.6787837989453607,0.7486544088429723,0.7954003462807488,0.7734398402396405,0.7351313969571232,0.6486024446533892
0.3477463622382586,0.2808347956881424,0.2544197185372548,0.6924385138670854,0.7713078497392222,0.2699230017402084,0.6784846104940351,0.7477513275295308,0.7943876384306295,0.7739390913629555,0.7349008759797142,0.6478758868279341
0.3420087542884183,0.27956045792596307,0.25536151548583275,0.6950222396650968,0.7668845315904139,0.2695892631528761,0.6725008414675194,0.742657948921721,0.7895527751461894,0.7691795639873522,0.7306856352499506,0.6424480724848278
0.33751330888441977,0.27928887774713795,0.257083658477518,0.696493982208268,0.762263154420017,0.27020906338649314,0.6691723699465201,0.7389733771628797,0.786383979615171,0.7666500249625561,0.7275571362708293,0.6383024190101718
0.3439015734058914,0.28125261134787327,0.25668003121384175,0.6931580324437467,0.7663563741995114,0.2711626022074424,0.6703691237518232,0.7403460607593108,0.7879520433830977,0.7690464303544683,0.7301587301587301,0.6422771177023677
0.35117709688867865,0.2835297066934068,0.2563302209186557,0.6893642072213501,0.7708457120221825,0.2723068487925815,0.6754179288679457,0.7462341509229491,0.791872202802914,0.7733732734231985,0.7350326022525192,0.6481750576972392
0.3527150124216255,0.28313278181666246,0.2550924306433819,0.6892660910518054,0.7732224202812438,0.27152017926529837,0.6759789072141816,0.7465231369432505,0.7919702067884095,0.7733399900149774,0.7350984653889219,0.6472348063937089
0.3441973263929966,0.28060499707529035,0.2557113257810188,0.6936159079016222,0.7676767676767676,0.2703520942096355,0.6713040876622163,0.7418271141133548,0.7872986834797948,0.7687801630887002,0.7311137456365672,0.6429609368322079
0.3386371702354194,0.2794768947940169,0.2567876651508221,0.6960361067503925,0.763319469201822,0.2701852249159694,0.6681626089232956,0.7382870353646643,0.7846852438665839,0.7655516724912631,0.7276888625436343,0.6397982733566973
0.34064829054773454,0.2812735021308599,0.2581869063315664,0.6940410779696494,0.7627252921370568,0.27183007938210685,0.6713040876622163,0.7408879095473757,0.7878540393976021,0.7680479281078382,0.730619772113548,0.6428754594409779
0.35135454868094174,0.28415643018300324,0.2570298415090278,0.6888409209837781,0.7700534759358287,0.27297432596724597,0.675268334642283,0.7456561788823466,0.7924275587207213,0.7721417873190213,0.7349338075479154,0.6489443542183093
0.35129539808352067,0.28304921868471633,0.25560369184403847,0.6897239665096808,0.7718360071301248,0.2716870485589645,0.6750813418602043,0.744861467326518,0.7916108588415929,0.7708770178066233,0.7343410393202924,0.6482177963928542
0.3420087542884183,0.280208072198546,0.2561956784974303,0.6945316588173732,0.7658942364824718,0.2703520942096355,0.669995138187666,0.7385398981324279,0.7864166476103361,0.7648194375104009,0.7286438780214713,0.6430036755278229
0.33940612800189285,0.2793933316620707,0.2563302209186557,0.6958725798011512,0.7642437446359014,0.2699468402107321,0.6680878118104642,0.7353610519091139,0.7833785240599785,0.7619903478116158,0.7264045313837845,0.6407385246602274
0.3499349343428369,0.28100192195203477,0.25361246400990234,0.6916862899005757,0.773486498976695,0.2696607785644473,0.6703691237518232,0.7378174330816747,0.7849139198327398,0.763987352304876,0.727886451952842,0.6417215146593727
0.3528333136164675,0.28263140302498535,0.2543928100530098,0.6896258503401361,0.7741466957153231,0.2709242175022051,0.673099218370171,0.7410685258100639,0.788278723334749,0.7682809119653852,0.7314430613185801,0.6462945550901786
0.34910682597894244,0.2822135873652544,0.2555498748755483,0.6909994767137625,0.7706476530005941,0.27121027914848983,0.6739967837241483,0.7415020048405159,0.7884747313057399,0.7691462805791311,0.7323322136600146,0.6472775450893239
0.3399976339761032,0.27834879251274336,0.25471571186395076,0.6965266875981162,0.7665544332210998,0.2686357243319269,0.6673398406821497,0.7357584076870282,0.7821698082388684,0.7625894491595939,0.7269314364750049,0.6413368663988376
0.3372175558973146,0.2781607754658645,0.2557382342652639,0.6974424385138671,0.7637816069188618,0.2689694629192591,0.6640861662739819,0.732073835928187,0.7781516448335566,0.7583957397237476,0.7234406902456695,0.6360372681425763
0.34549863953625937,0.2801871814155595,0.25460807792697043,0.6935504971219258,0.7697893972403776,0.26961310162339985,0.6660682897640151,0.7343496008380594,0.7806670804612722,0.7602928939923448,0.7251202002239346,0.6386443285750919
0.35129539808352067,0.28196289796941587,0.25423135914753925,0.6905743066457353,0.773486498976695,0.27047128656225417,0.6707805078723962,0.7399487049813966,0.7854039397602169,0.765385255450158,0.7302245932951327,0.6450551329173434
0.34969833195315275,0.28108548508398096,0.25382773188386304,0.6917189952904239,0.7730903809335181,0.2698038093875897,0.6715658775571264,0.7408517862948379,0.7853386037698866,0.7657846563488101,0.7320358295462029,0.6454825198734935
0.3422453566781025,0.27878749895546084,0.25423135914753925,0.6955782312925171,0.7684029840892586,0.2686595628024506,0.6668162608923295,0.7362641332225555,0.7806017444709418,0.7611915460143118,0.72834749390766,0.6399264894435422
0.337927363066367,0.27753405197626807,0.25460807792697043,0.6977367870225013,0.7655641381131576,0.2681112779804048,0.6637121807098246,0.7321099591807246,0.7765835810656301,0.7575969379264437,0.7246591582691168,0.634840584665356
0.339701880988998,0.2794142224450572,0.2562225869816753,0.6957744636316066,0.7645738430052155,0.2698991632696846,0.6667040652230826,0.7349636961311996,0.7792296886740061,0.7605924446663337,0.7277217941118356,0.6385588511838619
0.3472140068614693,0.2812943929138464,0.25522697306460734,0.6922422815279958,0.769987456261966,0.2705428019738254,0.6714910804442948,0.7402015677491602,0.7835745320309693,0.765085704776169,0.7322663505236119,0.6430891529190529
0.3489293741866793,0.2812108297819002,0.2543120846002745,0.6918171114599687,0.7721000858255759,0.27006603256335077,0.6717902688956207,0.7404905537694614,0.7839012119826206,0.765584955899484,0.7318382401369953,0.6439011881357382
0.33987933278126115,0.2776593966741873,0.2538815488523532,0.6970826792255364,0.767544728329042,0.2678728932751675,0.6672276450129027,0.7349636961311996,0.778445656790043,0.7603594608087867,0.7261410788381742,0.6369775194461066
0.33751330888441977,0.27640594969499455,0.25331647068320645,0.698750654107797,0.7669505512642767,0.2668955159836945,0.6627398182430159,0.7309540150995195,0.7756362092058411,0.7571309702113496,0.7240005269050912,0.6340285494486709
0.3424228084703656,0.2800409459346536,0.25576514274950896,0.6945316588173732,0.7666864725688255,0.27006603256335077,0.6658812969819365,0.7340606148177582,0.7789030087223547,0.7610251289732068,0.7271948890206151,0.6393281477049321
0.35034898852478413,0.2826522938079719,0.2555498748755483,0.6903126635269493,0.7713078497392222,0.2714486638537272,0.6717154717827892,0.7384676516273525,0.7828231681421712,0.7648194375104009,0.7309820193637622,0.6446277459611933
0.34804211522536377,0.28231804128018717,0.2561687700131852,0.6911957090528519,0.769261239849475,0.2715440177358221,0.6731366169265867,0.73958747245602,0.7833131880696481,0.765718089532368,0.7307844299545545,0.6450978716129584
0.3370401041050515,0.27811899389989136,0.25576514274950896,0.6975405546834118,0.7636495675711361,0.2689456244487354,0.6672276450129027,0.7332659032619298,0.7780209728528961,0.7592278249292727,0.724692089837318,0.6372339516197966
0.3323080563113688,0.27682376535472547,0.25624949546592046,0.6998299319727892,0.7604146035518584,0.268445016567737,0.6630764052507574,0.729328468735325,0.7746888373460521,0.7551006823098685,0.7213001383125864,0.6337293785793658
0.34283686265231283,0.2807094509902231,0.2564647633398811,0.6939102564102564,0.7660262758301972,0.27073350973801524,0.665956094094768,0.7328685474840155,0.7779556368625659,0.7584290231319687,0.7253177896331424,0.638858022053167
0.348456169407311,0.28365505139132613,0.25770255361515493,0.6900510204081632,0.7676767676767676,0.27297432596724597,0.6700325367440818,0.737998049344363,0.783019176113162,0.763288400732235,0.7297306197721135,0.6455679972647236
0.3456760913285224,0.2813779560457926,0.25603422759195976,0.6926020408163266,0.7681389053938072,0.2709242175022051,0.6704439208646545,0.7391901166781057,0.7823984842050243,0.763255117324014,0.7291378515444905,0.6450551329173434
0.33934697740447184,0.278641263474555,0.25538842397007777,0.696493982208268,0.7654320987654321,0.2690886552718778,0.6659186955383524,0.7336271357873063,0.7771062689882722,0.7579963388250957,0.724099321609695,0.6385161124882469
0.3350289837927363,0.27870393582351466,0.25743346877270407,0.6976059654631084,0.7604806232257212,0.27004219409282704,0.6625154269045216,0.7301954267962287,0.7745254973702265,0.7553669495756364,0.7219917012448133,0.6353534490127362
0.3388737726251036,0.28118993899891365,0.25888652692193853,0.6945970695970696,0.7608107215950353,0.27209230255786787,0.6656569056434423,0.7334826427771557,0.7777922968867401,0.7578632051922116,0.7256471053151551,0.638900760748782
0.34360582041878623,0.28198378875240243,0.2577563705836451,0.6927001569858713,0.7648379217006668,0.2720446256168204,0.6688357829387787,0.7359390239497166,0.7797523765966483,0.7604260276252287,0.7286438780214713,0.6436874946576631
0.3485153200047321,0.28219269658226787,0.25579205123375404,0.6911630036630036,0.769987456261966,0.27130563303058475,0.6692097685029358,0.7366614890004697,0.7793276926595015,0.7602596105841238,0.7287756042942765,0.6449269168304983
0.3443747781852597,0.2800827275006267,0.2549578882221565,0.6939429618001047,0.7687330824585726,0.2697322939760185,0.6649089345151278,0.7316042336451974,0.7752441932638595,0.7568647029455816,0.7252189949285385,0.6403966150953073
0.3365077487282622,0.278181666248851,0.25606113607620484,0.6976059654631084,0.7629893708325081,0.26913633221292527,0.6619544485582857,0.7287504966947225,0.7720753977328412,0.7542020302879014,0.7224527431996312,0.6348833233609711
0.34443392878268075,0.28100192195203477,0.2560880445604499,0.6932234432234432,0.7674126889813163,0.27073350973801524,0.6650585287407906,0.7309901383520573,0.7748521773218778,0.7568314195373606,0.7241651847460977,0.6372766903154117
0.34952088016088967,0.2838639592211916,0.2574872857411942,0.6895604395604396,0.7685350234369841,0.2729981644377697,0.6713040876622163,0.7377451865765994,0.780405736499951,0.7626892993842568,0.7296647566357111,0.6434738011795881
0.3470957056666273,0.2845533550597476,0.25947851357533036,0.6896912611198327,0.7647058823529411,0.2742854418460512,0.6721268559033622,0.7397319654661706,0.7824311522001894,0.765019137959727,0.7312454719093724,0.6447132233524233
0.3420679048858394,0.2859739283028328,0.2635955116648279,0.6899856096284668,0.7568495411632665,0.27690767360366164,0.6661056883204308,0.7344940938482101,0.7809610924177584,0.76378765185555,0.7292695778172957,0.6418497307462177
0.3399976339761032,0.28772875407370263,0.2667976212899928,0.6892006802721089,0.7517660262758301,0.2793153591265584,0.6625528254609373,0.7301231802911534,0.7803730685047858,0.7635879514062239,0.7293683725218996,0.6422343790067527
0.3499940849402579,0.29261719729255453,0.2685466727659231,0.682594191522763,0.7551990493166963,0.28289112970511815,0.6625154269045216,0.7299064407759276,0.7839992159681161,0.7677150940256282,0.7338470657972732,0.6471920676980939
0.3625931621909382,0.29761009442633907,0.2692193848720502,0.6752027734170591,0.7614048986598005,0.28603780781425064,0.6654325143049479,0.7339522450601452,0.7903041390349875,0.7741387918122816,0.7396759533688995,0.6550987263868707
0.3612326984502544,0.2981950363499624,0.27061862605279446,0.6751046572475145,0.7588961510530138,0.28699134663519993,0.6668536594487453,0.7365531192428566,0.7934075985756754,0.7773339990014977,0.7426727260752157,0.6586887768185316
0.3569738554359399,0.2961268488342943,0.2699190054624223,0.6779173207744638,0.7574437182280318,0.2854895229922048,0.6597853322861739,0.7311346313622079,0.788768743262226,0.7734065568314195,0.7388855957320687,0.6534746559535003
0.35833431917662373,0.29754742207737944,0.27110297876920597,0.6764455782312926,0.756717501815541,0.28682447734153377,0.6512210628669735,0.7242350901275151,0.7866779915716573,0.7721085039108004,0.7376341961404203,0.6511667663902898
0.3673252099846208,0.30448316202891285,0.2759465059333208,0.6684981684981686,0.7557932263814616,0.2929509642661327,0.6458356707431093,0.7220676949752556,0.790663486981804,0.7775669828590447,0.7449450042811039,0.6603555859475169
0.3827043653140897,0.31106375866967495,0.27742647256680036,0.6591117216117217,0.7625932527893311,0.29736108131302297,0.6391413291446951,0.7183831232164145,0.7920028747835746,0.780828756864703,0.7503787130343147,0.6706556115907342
0.38477463622382585,0.31206651625302917,0.2777762828619864,0.6577380952380952,0.763319469201822,0.2980762354287349,0.6327461759976065,0.7126034028103891,0.7878540393976021,0.7779331003494757,0.750181123625107,0.6724933755021797
0.38625340115935175,0.30939249603075125,0.2736592847724888,0.6594387755102041,0.7691292005017494,0.2947150110848888,0.6296420958151016,0.7093161868294622,0.7808630884322629,0.7705774671326343,0.744615688599091,0.6673647320283785
0.39902993020229505,0.30552770117824013,0.26286898259021074,0.6589481946624803,0.789529279725358,0.2877303392214356,0.6289689217996185,0.708702091536322,0.7755055372251805,0.763421534365119,0.7382928275044458,0.660398324643132
0.41251626641429084,0.3037310938413972,0.2544197185372548,0.6565934065934066,0.8074206113421799,0.28298648358721307,0.6368600172033361,0.7169020698623704,0.7786743327561988,0.765584955899484,0.7404663110057301,0.6635182494230277
0.4134626759730274,0.30245675607921785,0.2523208567661384,0.6573456305599162,0.8105235360137321,0.2813177906505519,0.6481917797972998,0.7274139363508291,0.7855346117408776,0.7709103012148444,0.7452413883949154,0.669800837678434
0.40251981545013604,0.3000960976017381,0.2542851761160294,0.6622187336473052,0.8020069980854294,0.28084102124007726,0.6507722801899847,0.7270888270779902,0.7835745320309693,0.7690797137626892,0.7426068629388132,0.6682195059406787
0.3887377262510352,0.29625219353221355,0.25560369184403847,0.6690214547357405,0.7926982240707731,0.2792438437149873,0.646022663525188,0.7193584510349312,0.7743948253895658,0.7604925944416708,0.7344398340248963,0.6597999829045218
0.3676801135691471,0.29082058995571153,0.2581869063315664,0.6790947148090006,0.7777777777777777,0.2772890891320413,0.6484161711357942,0.7176606581656613,0.7710953578778871,0.7563987352304875,0.7297306197721135,0.6521924950850501
0.35383887377262513,0.2886897300910838,0.2617657347361624,0.684589220303506,0.7656961774608833,0.2776466661898973,0.6584015856987921,0.7252465411985696,0.7762569011139787,0.7589948410717257,0.7310478825001646,0.6505256859560646
0.35265586182420444,0.28772875407370263,0.2610392056615451,0.6856684981684982,0.7658942364824718,0.2767646427805192,0.6689479786080258,0.7352888054040385,0.7826924961615106,0.7623897487102679,0.7327273924784298,0.6509103342165997
0.34561694073110144,0.2824433859781064,0.25743346877270407,0.6917844060701204,0.7664223938733742,0.27216381796943906,0.6739593851677327,0.7396597189610953,0.7816144523210612,0.7598269262772508,0.7286768095896726,0.6447987007436533
0.3418313024961553,0.27857859112559535,0.2541775421790491,0.6958398744113031,0.7682709447415329,0.26851653197930825,0.6706309136467332,0.7351081891413503,0.7739374734572539,0.7513396571808952,0.7203451228347494,0.6347551072741261
0.33638944753342015,0.2761134787331829,0.25345101310443185,0.6992739403453689,0.7660922955040601,0.26680016210159957,0.6672276450129027,0.7306650290792184,0.7683512462840155,0.7450823764353469,0.7142198511493116,0.6275750064108043
0.3340825742339998,0.27644773126096767,0.2549309797379114,0.6996336996336997,0.7629893708325081,0.26763450856993015,0.6693593627285988,0.7327601777264026,0.768939270196988,0.7460808786819769,0.7155700454455641,0.6295409864090948
0.339642730391577,0.2786830450405281,0.25530769851734253,0.6963631606488749,0.7656961774608833,0.2690886552718778,0.6742211750626427,0.7374923238088358,0.7736107935056026,0.7509069728740222,0.7202463281301456,0.6349260620565861
0.33911037501478764,0.27820255703183755,0.2549309797379114,0.696886446886447,0.7658282168086089,0.2686357243319269,0.6758667115449345,0.7387927609001915,0.7750481852928686,0.7511732401397903,0.720048738720938,0.6334729464056758
0.3331953152726843,0.27580011698838475,0.2545273524742352,0.7003859236002093,0.7630553905063708,0.2670862237478843,0.6705561165339019,0.7331936567568543,0.7704746659697496,0.745748044599767,0.7146150299677271,0.6287716898880247
0.3290547734532119,0.2743168713963399,0.25450044398999006,0.702708006279435,0.7607447019211724,0.26622803880903,0.6682000074797113,0.7300148105335406,0.7678938943517036,0.7432850723914127,0.7116841203978134,0.625950935977434
0.33337276706494734,0.2765730759588869,0.2554153324543229,0.6997318158032444,0.7619990757245659,0.26792057021621496,0.669733348292756,0.732398945201026,0.7705400019600798,0.7467465468463971,0.7149443456497399,0.6296264638003248
0.3372175558973146,0.2777429598061335,0.2552000645803622,0.6977694924123495,0.7644418036574898,0.26849269350878446,0.6737349938292382,0.7369865982733086,0.7742968214040705,0.7522715926110833,0.7190607916748996,0.6334302077100608
0.33656689932568323,0.2782234478148241,0.25611495304469506,0.6975732600732601,0.7629233511586453,0.26918400915397267,0.6757919144321031,0.7374200773037605,0.7754728692300155,0.7543018805125644,0.7203121912665481,0.634498675100436
0.3297645806222643,0.27546586446059995,0.2556844172967737,0.7016287284144427,0.7596883871393675,0.26739612386469286,0.6717154717827892,0.7334103962720804,0.7725980856554834,0.7503411549342652,0.7157676348547718,0.6282160868450295
0.32994203241452746,0.2744839976602323,0.2542851761160294,0.7023482469911042,0.7614709183336633,0.26622803880903,0.6692845656157673,0.7318209731604234,0.7707360099310706,0.7475786320519221,0.71211223078443,0.6235575690229934
0.3305335383887378,0.27550764602657307,0.25536151548583275,0.7013670852956567,0.760546642899584,0.26730076998259794,0.6801301469763268,0.7421522233861937,0.7806997484564373,0.7536362123481444,0.7129025884212606,0.6198820412001026
0.3303560865964747,0.2789755160023398,0.25990904932325165,0.6987179487179488,0.7548689509473823,0.2712817945600611,0.6951643666554471,0.7581909475129142,0.7936036065466663,0.7654518222665999,0.720048738720938,0.6201384733737927
0.3288773216609488,0.28428177488092254,0.2674165164276297,0.6949568288854003,0.744833960520235,0.2776466661898973,0.6824862560305173,0.7433804139724741,0.7877887034072719,0.7752038608753535,0.7386221431864586,0.6371484742285666
0.3290547734532119,0.29435113228043785,0.2802787718967791,0.6870094191522763,0.7291212781408859,0.28906529357076455,0.6429559818990986,0.6967091716938193,0.7648231028061808,0.7797636878016307,0.7643416979516565,0.6702282246345842
0.33763161007926185,0.3037102030584106,0.28845895110728415,0.6773286237571952,0.7239057239057238,0.2980523969582112,0.6042484760088261,0.6501101759202399,0.7374799908529615,0.7791978698618739,0.786702232760324,0.7054449098213523
0.3660830474387792,0.30548591961226707,0.2778031913462315,0.6680729984301413,0.7528223410576351,0.2943335955565091,0.5843524439956618,0.6294476754686992,0.7081441311946687,0.7625894491595939,0.7919383521043272,0.7365159415334643
0.40671950786702943,0.3061962062338096,0.26025885961843775,0.6562663526949242,0.7970555225457187,0.28696750816467614,0.5805751897976739,0.6323375356717119,0.6854072065597334,0.7339324346813113,0.7725416584337746,0.7527139071715532
0.42754051815923344,0.3128394752235314,0.2593170626698598,0.6453427524856097,0.8097973196012411,0.29032873250852226,0.5710385579116647,0.6260520897301592,0.6529025513704224,0.6946247295723081,0.7309820193637622,0.7453201128301564
0.4352892464213889,0.3313278181666249,0.279606059790652,0.628695709052852,0.789199181356044,0.3098762783379818,0.527207449792438,0.5764187407434165,0.5970402796380386,0.6604759527375603,0.7103668576697623,0.7558765706470639
0.4375961197208092,0.35859028996406783,0.3136722008449264,0.60671768707483,0.7487291212781408,0.3405325514315002,0.45906728000299196,0.49459957374562,0.531181601385123,0.637843235147279,0.7133636303760785,0.791306949311907
0.4271264639772862,0.36205815993983453,0.3229287194252348,0.6069139194139195,0.7314979863999471,0.34658752294452794,0.41396462096563075,0.42423147780226134,0.41939172193002516,0.5400565817939756,0.635282882170849,0.7684417471578767
0.3509996450964155,0.3185635497618451,0.30150956596614914,0.6619897959183675,0.7153231663035584,0.31230780233140243,0.47383970978720225,0.46039085359245746,0.3429812812387704,0.41111665834581457,0.49743133768030035,0.6586460381229164
0.2688986158760204,0.2784532464276761,0.2871942523477653,0.7161172161172161,0.6870667458902753,0.28305799899878425,0.5635962451849359,0.5465086876422354,0.3758126163797328,0.3948410717257447,0.45853915563459136,0.5888110094879905
0.1999290192830948,0.2571655385643854,0.2911497995317924,0.7518315018315019,0.6437578398362711,0.2726882643209612,0.6450503010583791,0.6321930426615613,0.4606513998235929,0.4577134298552171,0.49315023381413425,0.5533378921275323
0.1659174257660003,0.23754909334001836,0.28138201975082744,0.7765894819466249,0.6366937347329503,0.25714558153948847,0.7311417779273721,0.7221038182277932,0.539054588219921,0.5149276085871193,0.5224922610814727,0.5165398752030088
0.170708624157104,0.2286705105707362,0.26773941823857067,0.7822148090005233,0.6561035188486167,0.24606069274595346,0.7763192340775645,0.7747715204276994,0.5851491293979288,0.5528041271426193,0.5495290785747218,0.5091888195572272
0.19584762806104344,0.23078047965237736,0.25902106934316393,0.7736132914704344,0.680860896547171,0.24339078404729553,0.7790867272523281,0.7863670844922878,0.6124595733559832,0.5849558994841071,0.5780807482052295,0.5200871869390546
0.221164083757246,0.23167878332079883,0.24866130290880717,0.7659275248560964,0.7077309038093351,0.2393144055877375,0.7745615019260257,0.7899432864935159,0.641534089052955,0.6157763354967548,0.6035697819930185,0.5364561073596035
0.23618833550218862,0.23073869808640426,0.24061566611952753,0.7624934589220305,0.725952333795471,0.23521418865765575,0.7591906952391637,0.7812375826319402,0.6603181862729085,0.6349142952238308,0.6202660870710663,0.5476109069151209
0.2515674908316574,0.23312024734687053,0.23668702741974548,0.7563775510204083,0.7393543275896216,0.23483277312927603,0.7446800553498635,0.7724957555178269,0.6735160563196236,0.6486270594108836,0.6322202463281301,0.5543636208222925
0.2778895066840175,0.24183170385226035,0.23593358986088317,0.7422815279958138,0.7550009902951079,0.23948127488140364,0.7410149968211227,0.7744102879023227,0.6949789291431185,0.6701947079380929,0.65000329315682,0.5677835712454056
0.29646279427422223,0.2535305423247263,0.24255307698517345,0.7279892726321299,0.7571796395325807,0.24906434003194355,0.740566214144134,0.7805151175811871,0.7211133252752279,0.6963887502080213,0.6728578014885068,0.5876998034020002
0.3099491304862179,0.2632029748474973,0.24887657078276784,0.7167059131344847,0.7569815805109923,0.25738396624472576,0.7360783873742474,0.7827908824910595,0.742412858122897,0.7159593942419703,0.6900151485213726,0.6025728694760236
0.3132024133443748,0.2685301245090666,0.25425826763178433,0.7116365777080064,0.7521621443190071,0.26281913752413644,0.7172295149407233,0.7698226348300401,0.7508412008755023,0.7248793476451988,0.6973259566620562,0.60825711599282
0.3191766236838992,0.2752151750647614,0.2601512256814574,0.7047357404500262,0.748333003234964,0.26923168609502013,0.6863383073413367,0.7442834952859156,0.7552513802227958,0.7322682642702613,0.7050319436211553,0.6158218651166767
0.32580149059505503,0.28227625971421405,0.26623254312084604,0.6973770277341707,0.7445698818247838,0.27595413478271236,0.6696585511799246,0.7296535780081639,0.7611969553428507,0.7418206024296887,0.7138905354672991,0.6249679459782888
0.33834141724831424,0.28912843653380127,0.2693539272932756,0.688546572475144,0.7476728064963358,0.2812462752389807,0.6701073338569131,0.7330491637467037,0.7689719381921531,0.7500416042602762,0.7227491273134427,0.6333019916232157
0.33526558618242047,0.2883763683462856,0.269811371525442,0.6899856096284668,0.7454281375850003,0.2810317290042671,0.6674520363513969,0.7309901383520573,0.7708340139165659,0.7518389083042102,0.725745900019759,0.6368065646636465
0.32858156867384364,0.2862037269156848,0.2700266393994027,0.6935504971219258,0.7414009374793689,0.27988748241912803,0.6620666442275328,0.7250298016833435,0.7679918983371992,0.7497753369945082,0.7233748271092669,0.6350542781434311
0.3294096770377381,0.28639174396256367,0.2699190054624223,0.6931580324437467,0.7420611342179969,0.2799589978306992,0.6559706795317701,0.7196113138026948,0.7643004148835386,0.747245797969712,0.7203121912665481,0.6315497051030003
0.3364485981308411,0.28900309183588196,0.2700804563678928,0.6891679748822607,0.7457582359543143,0.28150849841474174,0.656120273757433,0.7187804789943286,0.7661624906079515,0.7491096688300881,0.7217941118356056,0.6318488759723053
0.34585354312078553,0.29253363416060835,0.2702957242418535,0.6838042909471482,0.7507097114940251,0.2836301222913538,0.6594113467220166,0.721706462449879,0.7714873738198688,0.7542685971043435,0.7273924784298228,0.6380032481408668
0.3489293741866793,0.2935572825269491,0.27024190727336334,0.6821690214547358,0.7524922426883209,0.28417840711339964,0.6596731366169267,0.7228985297836218,0.7729574336022998,0.7566650024962556,0.730027003885925,0.6397555346610821
0.33437832722110494,0.2906743544748057,0.27314802357183227,0.6884484563055991,0.7408067604146035,0.28382083005554365,0.65544709974195,0.7188166022468663,0.7695926301002909,0.7544350141454484,0.7273266152934204,0.6376613385759466
0.3270436531408968,0.28952536141054563,0.27500470898474294,0.6913592360020933,0.7344688717237736,0.28398769934920975,0.6505478888514904,0.7139038399017448,0.7659338146417956,0.7500083208520552,0.7240663900414938,0.6351824942302762
0.34277771205489177,0.29253363416060835,0.2717218739068428,0.6846546310832026,0.747276688453159,0.28424992252497083,0.6505104902950746,0.7132536213560668,0.7662931625886119,0.7494092195040772,0.7242310478825001,0.6359945294469613
0.3514728498757838,0.295312108297819,0.2713451551274117,0.680075876504448,0.7526242820360467,0.28568023075639465,0.6532031863570067,0.7162879745692302,0.7707360099310706,0.7535030787152603,0.7282486992030561,0.6403966150953073
0.348278717615048,0.2947689479401688,0.272098592686274,0.6813840920983778,0.7499174754076714,0.28568023075639465,0.6541755488238155,0.7176606581656613,0.7724674136748229,0.7557663504742884,0.7302904564315353,0.6439866655269681
0.33993848337868215,0.29222027241581017,0.27260985388693054,0.6857012035583464,0.7445698818247838,0.2844644687596844,0.6499121133924232,0.7137593468915941,0.7686452582405019,0.7519387585288734,0.7267667786339985,0.6386870672707069
0.3338459718443157,0.29245007102866216,0.27567742109087,0.6872056514913659,0.7374397570476001,0.2859424539321557,0.6466584389842552,0.7099302821226023,0.7654437947143184,0.7491762356465302,0.7245603635645129,0.6360372681425763
0.3366852005205253,0.29424667836550517,0.27669994349218313,0.6850143903715332,0.7377698554169142,0.2874442775751508,0.6455738808481992,0.7096412961023011,0.7660971546176211,0.749309369279414,0.7245932951327143,0.6376613385759466
0.3447888323672069,0.2972758418985543,0.2769152113661438,0.6804029304029305,0.741995114544134,0.2892560013349544,0.6502113018437488,0.7149875374778745,0.7704746659697496,0.7541354634714594,0.7291707831126919,0.6439439268313532
0.3452028865491542,0.297798111473218,0.2773995640825553,0.6798469387755103,0.7416650161748201,0.28978044768647643,0.6506974830771532,0.7154571397608641,0.7706706739407403,0.7547012814112165,0.72989527761312,0.6459953842208737
0.34277771205489177,0.29696248015375615,0.27742647256680036,0.6811878597592883,0.740278603023701,0.28930367827600184,0.6448259097198848,0.7099302821226023,0.766783182516089,0.7512065235480112,0.7265033260883883,0.6416787759637576
0.33715840529989355,0.2959179410044288,0.27863735435782905,0.6835753532182105,0.7356572258533043,0.28923216286443065,0.6391413291446951,0.7040783152115017,0.7614582993041717,0.746480279580629,0.7222880853586248,0.6374903837934867
0.34118064592452385,0.29844572574580097,0.28006350402281843,0.680468341182627,0.7361853832442067,0.2913061097999952,0.6388421406933693,0.7035725896759745,0.7611969553428507,0.7467465468463971,0.7225844694724364,0.6396700572698522
0.34561694073110144,0.3027910086070026,0.2836423324274144,0.6758568812140242,0.7342047930283223,0.29538248825955327,0.6431429746811773,0.7081602427482571,0.7656398026853092,0.7517057746713263,0.7284792201804651,0.6466792033507138
0.3445522299775228,0.3024358652962313,0.28366924091165946,0.6764128728414442,0.7336106159635571,0.29519178049536343,0.6428063876734359,0.7064263266264494,0.7655417986998138,0.7519387585288734,0.7295000987947046,0.6494999572613045
0.33976103158641907,0.30051391326146903,0.28340015606920865,0.6792582417582419,0.7312999273783587,0.2939760184986531,0.6373087998803246,0.6995267853917567,0.7593348796184378,0.7459144616408719,0.7247579529737206,0.6450123942217284
0.3321897551165267,0.3001378791677112,0.2863331808519226,0.6816457352171638,0.7234435861886841,0.2950725881427448,0.6320356034257079,0.693349709207817,0.7527032765999151,0.7407888167748377,0.720180464993743,0.6399692281391572
0.33638944753342015,0.30306258878582765,0.2882167747490784,0.6781789638932496,0.723509605862547,0.2975756275477366,0.6300908784920903,0.6918325326012356,0.7512005488223188,0.7398235979364286,0.7197523546071264,0.6413796050944526
0.3472140068614693,0.3070318375532715,0.2883782256545489,0.6720630559916275,0.7293193371624743,0.2999117976590622,0.6309884438460677,0.6944334067839469,0.7520172487014471,0.7420535862872357,0.7224527431996312,0.6464227711770237
0.343191766236839,0.30770034260884094,0.2910690740790572,0.6726517530088959,0.7237736845579983,0.3014851367136285,0.6308388496204047,0.6922298883791497,0.7494691450785665,0.7413546347145947,0.7222222222222222,0.6470211129156338
0.33349106825978947,0.3054023564803209,0.29252213222829165,0.677165096807954,0.7165775401069517,0.300817659538964,0.6225737686525301,0.6824043636889067,0.7400934304661724,0.7332334831086703,0.715438319172759,0.6392426703137021
0.32899562285579087,0.30613353388485,0.29550897397949577,0.677819204604919,0.7103716907638475,0.30255786788719635,0.6150566588129699,0.6734457970595673,0.7316650877135671,0.7257447162589448,0.7099387472831457,0.6354389264039662
0.32994203241452746,0.3099356563884014,0.3000026908484245,0.6745813710099425,0.7054202152241368,0.3067057617583256,0.6137477093384196,0.6717841274428349,0.7284309561922185,0.7245465135629888,0.7089508002371072,0.6386015898794769
0.3322489057139477,0.31288125678950446,0.3026935392729328,0.6716378859236002,0.7034396250082524,0.30956637822117333,0.6144208833539025,0.6712422786547702,0.7272222403711084,0.7250790480945248,0.709741157873938,0.6428327207453628
0.32645214716668647,0.3132155093172892,0.30578801496111724,0.6729788069073784,0.6963755199049316,0.31113971727573964,0.6115785930663077,0.6678466929162302,0.7224200450818334,0.7217839906806457,0.7079628531910689,0.6422771177023677
0.3175795575535313,0.3115024651123924,0.3076177918897829,0.6767726321297751,0.6891793754538853,0.3109728479820735,0.6018549683982198,0.6564678683668679,0.7097775309529254,0.7118322516225661,0.6991701244813278,0.6362937003162664
0.311841949603691,0.31252611347873316,0.31154643058956494,0.6775575614861329,0.681190994916485,0.31328517962287544,0.5922435393993792,0.6444388252718275,0.6973310247950084,0.7012481278082875,0.6904761904761905,0.6309513633643902
0.3131432627469538,0.3162446728503384,0.3157710626160429,0.6742870225013082,0.6767016570938138,0.31729004267086225,0.588092299637234,0.6376115305422101,0.6890006860278985,0.6947245797969711,0.6869525126786538,0.6307376698863151
0.3132615639417959,0.3202557031837553,0.32085676613836345,0.6711145996860283,0.6705618274245725,0.3218193520703712,0.5882044953064811,0.6357331214102518,0.6849825226225866,0.692394741221501,0.6868207864058486,0.6339858107530558
0.3121968531882172,0.32215676443553104,0.32378979092107746,0.6699372056514915,0.6663365682973525,0.3242031991227443,0.5844646396649089,0.6301340172669148,0.6784815915847245,0.6875353636212348,0.6845485081999605,0.6353534490127362
0.3010173902756418,0.32019303083479567,0.3263460969243603,0.6745486656200942,0.6569617746088334,0.32422703759326804,0.5743296308762482,0.6174908788787343,0.663519649799092,0.6748211016808121,0.6740762695119542,0.6277032224976494
0.2894830237785402,0.32054817414556697,0.33205069558431777,0.6774594453165883,0.6435597808146827,0.32696846170349714,0.5637832379670146,0.6047393707329408,0.6482963640521382,0.6621734065568313,0.664098004346967,0.6207368151124028
0.2957529871051698,0.32368179159354893,0.3332346688911014,0.6732731554160126,0.6456063907044298,0.3292569548737753,0.5566027151351958,0.5962865296391288,0.637515925647643,0.6532867365618239,0.6583020483435421,0.617403196854432
0.2966402460664853,0.3260215592880421,0.3358447918628744,0.6711800104657248,0.6428995840760546,0.33175999427876707,0.5550693743221512,0.5923490951125239,0.629871614779001,0.6487601930437676,0.655799249160245,0.6183861868535773
0.29072518632438193,0.32796440210579086,0.3410381293221753,0.6713108320251179,0.6331946920182213,0.33516889556366064,0.552675866711545,0.5871834699996388,0.6226519878475059,0.6444999167914793,0.6533623131133505,0.6221899307633131
0.2799006269963327,0.3261886855519345,0.34367516077819343,0.6756933542647829,0.6239519376774278,0.335311926386803,0.5436628146153559,0.5751183036520608,0.6075267060860476,0.6310201364619736,0.6426266218797339,0.6145824429438415
0.27357151307228206,0.32608423163700173,0.3464198261711918,0.6775248560962847,0.6170198719218327,0.33648001144246587,0.5341635812857625,0.5639200953653867,0.5934141321747085,0.618072890664004,0.6324178357373378,0.6071886486024447
0.26671004377144214,0.327316787833208,0.35110190242983613,0.6784406070120356,0.6074470192117251,0.3392691124937424,0.5313212909981675,0.5598020445760936,0.5871745450981674,0.6119154601431186,0.6281038003029704,0.608727241644585
0.27540518159233407,0.33099356563884014,0.35190915695718866,0.6731750392464678,0.6112761602957681,0.34170063648716303,0.5335278058266951,0.5605967561319222,0.5841690895429749,0.6106839740389415,0.6277086214845551,0.6118899051200958
0.2749319768129659,0.3296147739617281,0.3503484648709738,0.6743851386708529,0.6129266521423383,0.34022265131469165,0.5323684505778078,0.5579958819492108,0.5796935742053511,0.6062572807455483,0.6237239017322004,0.6094965381656552
0.26671004377144214,0.32564552519428425,0.34897613217447465,0.6797815279958138,0.6100878061662375,0.33736203485184396,0.5279928194771683,0.5517826825127334,0.5720819313318741,0.5972707605258778,0.6150958308634658,0.6020600051286434
0.2636342127055484,0.3235564468956296,0.3476576164464656,0.6822671376242805,0.6099557668185118,0.3355741495625641,0.525861101761472,0.5479897409962793,0.5669857240861128,0.5907804959227824,0.6084765856550088,0.5951363364390119
0.2659410860049687,0.32259547087824847,0.3453973037698787,0.6823652537938253,0.6140489865980062,0.3340246489785215,0.5297131530722915,0.552252284795723,0.5690111397863513,0.5910467631885504,0.6074557070407693,0.5931276177451065
0.2723293505264403,0.32359822846160274,0.34378279471517376,0.6798142333856619,0.6195946392024823,0.3339054566259029,0.5411571113355025,0.5641368348806127,0.5791055502923785,0.5985688134464969,0.6129223473621814,0.5982135225232926
0.27286170590322967,0.32031837553271497,0.33931598633049004,0.6822344322344323,0.6253383508285468,0.33004362440105844,0.5480758442724112,0.5729147852472637,0.5859331612818922,0.6027292394741222,0.6146677204768491,0.599880331652278
0.2687211640837573,0.31331996323222194,0.33218523800554317,0.6888736263736264,0.6317422591932396,0.3228920832439391,0.5491230038520514,0.5761297547231153,0.589232628793571,0.6025961058412381,0.6113087005203187,0.5937259594837165
0.26960842304507276,0.30989387482242836,0.3273686193256734,0.6912938252223968,0.638212187231795,0.3187918663138573,0.5552189685478142,0.5831015424628834,0.5954395478749469,0.6053919121318022,0.611802674043338,0.5879134968800753
0.28327221104933165,0.3101654550012534,0.32147566127600036,0.6873037676609105,0.6530005941770647,0.31636034232043675,0.5657279629006321,0.5961781598815158,0.6075920420763778,0.6148444000665667,0.6181584667061846,0.5883836225318404
0.29131669229859225,0.30989387482242836,0.31746629712348307,0.6853087388801675,0.6624414075394467,0.3144055877374908,0.5792662403231236,0.6128309793013763,0.625102087484891,0.6287235812947245,0.6287953632351972,0.595820155568852
0.29462912575417016,0.3059246260549845,0.31090062696768295,0.6875000000000001,0.6723443586188683,0.3092326396338411,0.590111821683683,0.6277860058519669,0.6411747411061384,0.6399400898652022,0.6370282552855167,0.6009060603470382
0.3011948420679049,0.30109885518509233,0.3016710168716197,0.6894296180010466,0.6873308245857265,0.302414837064054,0.5947866412356484,0.6348300400968103,0.650648459704028,0.6459311033449825,0.6398933017190278,0.5980853064364475
0.30409322134153555,0.29809058243502967,0.29647767941231873,0.6909994767137625,0.6953192051231266,0.2983861355455434,0.5980029170874005,0.6411877325434383,0.6595668223841102,0.6525545015809618,0.6436475004939735,0.5960765877425421
0.3092984739145866,0.29802791008607,0.2940290073460162,0.6895931449502878,0.7012609757707796,0.29726572743092805,0.608025730206814,0.6548784452552108,0.674561432164908,0.6652354801131635,0.6532964499769479,0.6015044020856484
0.32065538861942505,0.2988217598395588,0.28988510077227353,0.6858320251177396,0.7126163596751831,0.29588309614055164,0.6197688769213509,0.6693277462702742,0.6912221096991278,0.6794807788317523,0.6645919778699861,0.6100094025130354
0.3247367798414764,0.297568312860366,0.2864139063046579,0.6857012035583464,0.7191523073876015,0.2936422799113209,0.6280713564456413,0.6789365314452913,0.7039626278135311,0.6900316192378099,0.672989527761312,0.6146251816394563
0.32177924997042473,0.2943302414974513,0.2835885154589242,0.6890698587127159,0.7210008582557602,0.2905194402727121,0.6311006395153148,0.6834158147599609,0.7117376106628337,0.6952903977367282,0.6766449318316539,0.6136421916403111
0.3213060451910565,0.2922829447647698,0.2811667518768668,0.6907705389848248,0.7237076648841354,0.2882786240434814,0.6320356034257079,0.6876061120543294,0.7187285616281729,0.6995839573972374,0.679740499242574,0.6115479955551757
0.33349106825978947,0.2928052143394334,0.27629631622850687,0.6870094191522763,0.7365154816135208,0.28641922334263037,0.6373461984367405,0.6945778997940976,0.7265035444774754,0.7071060076551838,0.6848778238819733,0.6144542268569964
0.3446113805749439,0.29579259630650956,0.2750854344374782,0.6815803244374673,0.7441737637816068,0.28761114686881695,0.6456486779610308,0.7050175197774807,0.7385253666982459,0.7184556498585455,0.6943950470921425,0.621933498589623
0.34875192239441616,0.2965446644940252,0.2741705459731454,0.6798469387755103,0.747606786822473,0.28761114686881695,0.6503982946258274,0.711230719213958,0.7476070693541539,0.7265768014644699,0.7015082658236186,0.6272758355414992
0.3459126937182066,0.2932439207821509,0.2712106127061863,0.6832155939298796,0.7496533967122202,0.28441679181863694,0.6503982946258274,0.7123866632951631,0.7504491849335206,0.728141121650857,0.7013106764144109,0.6254380716300539
0.33940612800189285,0.289692487674438,0.26959610365148134,0.6877943485086343,0.7480029048656499,0.28169920617893157,0.6468828303227495,0.7104360076581295,0.7512005488223188,0.728074554834415,0.70025686623197,0.621634327720318
0.3464450490949959,0.2928052143394334,0.2704033581788338,0.6834118262689692,0.7509737901894764,0.28382083005554365,0.6503608960694118,0.7149152909727992,0.7572441279278691,0.7340655683141952,0.7049660804847527,0.6245832977177537
0.35259671122678343,0.2953538898637921,0.27088771089524527,0.6797488226059655,0.7537466164917145,0.2854895229922048,0.65570888963686,0.722248311237944,0.7649211067916762,0.7416209019803627,0.7117499835342159,0.63018206684332
0.35111794629125753,0.2947689479401688,0.2708069854425101,0.6805991627420199,0.7530864197530864,0.28510810746382514,0.6607576947529825,0.7277751688762055,0.7708666819117311,0.7467798302546179,0.7158993611275769,0.6341140268399008
0.34863362119957414,0.29303501295228546,0.26970373758846167,0.6826268969126112,0.7530204000792236,0.28365396076187754,0.6581771943602978,0.7249575551782683,0.7693312861389697,0.745714761191546,0.7130672462622669,0.6314642277117702
0.3460901455104697,0.29167711205815994,0.26911175093506984,0.6844256933542648,0.7523602033405955,0.28260506805883334,0.6536893675904111,0.7199002998229962,0.7667505145209238,0.7428523880845398,0.7097740894421393,0.6265920164116592
0.35502188572104576,0.2943302414974513,0.2684390388289428,0.6798796441653585,0.7581699346405228,0.28382083005554365,0.6559332809753543,0.7230068995412346,0.7693639541341349,0.746347145947745,0.7130672462622669,0.6284725190187196
0.36040459008635994,0.2970251525027158,0.269488469714501,0.6762493458922031,0.7598864461609559,0.2858232615795371,0.6615430644377127,0.729111729220099,0.7757342131913365,0.7532368114494923,0.7188632022656919,0.6356098811864263
0.35892582515083404,0.29608506726832123,0.26895030002959935,0.6773940345368917,0.7596883871393675,0.28503659205225396,0.66244062979169,0.7304121663114548,0.7787396687465291,0.7554335163920786,0.7207073700849634,0.6380887255320967
0.35094049449899445,0.2936826272248684,0.269488469714501,0.6814822082679226,0.7545388525780682,0.28391618393763857,0.6605333034144882,0.7274861828559044,0.7766162490607952,0.7532035280412714,0.7181057761970625,0.6341140268399008
0.3517094522654679,0.2934319378290298,0.26881575760837395,0.6814822082679226,0.7557932263814616,0.28348709146821144,0.6553723026291186,0.7234403785716866,0.7730554375877953,0.7490098186054251,0.7138576038990977,0.6270621420634243
0.35945818052762335,0.2955627976936575,0.26803541156526656,0.6776556776556778,0.7610748002904866,0.28434527640706575,0.6547365271700514,0.7241267203699022,0.7738068014765934,0.7497753369945082,0.7149443456497399,0.6280023933669544
0.36064119247604404,0.297798111473218,0.27037644969458874,0.6755952380952381,0.7588961510530138,0.28665760804786766,0.6597853322861739,0.7295452082505508,0.7795237006304924,0.7553003827591944,0.720048738720938,0.6355671424908111
0.35721045782562405,0.29738029581348707,0.27139897209590186,0.6768707482993197,0.7557272067075987,0.2868721542825813,0.6609072889786455,0.7313152476248961,0.7819084642775473,0.7582293226826426,0.7224198116314299,0.6386443285750919
0.346622500887259,0.2948942926380881,0.2730403896348519,0.6817438513867087,0.7478048458440615,0.286180838637393,0.6585885784808707,0.7280280316439692,0.7788050047368593,0.7551006823098685,0.7191925179477047,0.6351824942302762
0.34585354312078553,0.29443469541238404,0.27279821327664616,0.682332548403977,0.7476728064963358,0.28579942310901335,0.6546617300572198,0.7241989668749774,0.7758975531671621,0.7521717423864204,0.7161628136731872,0.6308658859731602
0.35644150005915065,0.2967744631068772,0.2709684363479805,0.6775575614861329,0.7557932263814616,0.28632386946053545,0.6549235199521298,0.7242350901275151,0.7767142530462906,0.7540688966550174,0.7163933346505962,0.6312505342336953
0.3652549390748847,0.2997409542909668,0.27078007695826495,0.6727825745682888,0.7610087806166237,0.28794488545614916,0.6595983395040952,0.7290756059675613,0.7812224363790795,0.7593609585621568,0.7210366857669762,0.6369775194461066
0.3627114633857802,0.29842483496281436,0.27024190727336334,0.6745486656200942,0.7602165445302699,0.28696750816467614,0.6615430644377127,0.7310623848571325,0.7826271601711803,0.7612913962389747,0.7225186063360337,0.6378750320540217
0.35354312078551997,0.2954583437787248,0.27059171756854944,0.6793890633176347,0.7546708919257938,0.2854180075806336,0.657354426119152,0.7274139363508291,0.7788703407271896,0.7583624563155267,0.7199170124481328,0.634455936404821
0.34904767538152137,0.29422578758251855,0.2710491618007158,0.6816130298273155,0.7516339869281045,0.2849173996996353,0.653016193574928,0.7221038182277932,0.7747541733363824,0.7542685971043435,0.7153724560363565,0.6290708607573297
0.35117709688867865,0.2957090331745634,0.27201786723353877,0.6798469387755103,0.7515679672542417,0.2862046771079168,0.6544373387187256,0.7228624065310841,0.7758975531671621,0.7557663504742884,0.7168214450372127,0.6311223181468502
0.3630072163728854,0.2991769031503301,0.27110297876920597,0.673861852433281,0.7593582887700534,0.28777801616248305,0.6586633755937022,0.7275584293609797,0.7801770605337951,0.7599600599101347,0.7218599749720083,0.6364646550987264
0.36537324026972673,0.29875908749059915,0.26943465274601086,0.6735347985347986,0.7627252921370568,0.2867768004004863,0.6602715135195782,0.7286421269371095,0.7819738002678776,0.7613246796471957,0.7234077586774682,0.6386443285750919
0.3557316928900982,0.2961686304002674,0.27051099211581414,0.6782443746729461,0.75599128540305,0.2857755846384896,0.6573918246755676,0.7248130621681176,0.7778903008722354,0.7564320186387086,0.7192913126523085,0.6328318659714506
0.35165030166804684,0.2945391493273168,0.27024190727336334,0.6806318681318683,0.7540106951871657,0.28475053040596915,0.6519690339952878,0.7194306975400065,0.7728594296168045,0.7508404060575802,0.7145491668313245,0.6269766646721942
0.35655980125399267,0.29631486588117323,0.2703226327260986,0.6778846153846155,0.756717501815541,0.2857755846384896,0.6520064325517035,0.7205505183686739,0.7736107935056026,0.7519387585288734,0.7162616083777908,0.6292845542354049
0.36087779486572813,0.2985083980947606,0.2711837042219412,0.6749738356881214,0.7580378952927972,0.28742043910462706,0.6557462881932759,0.724993678430806,0.7781189768383915,0.7563654518222664,0.7196535599025226,0.6357380972732712
0.36188335502188573,0.29813236400100274,0.27024190727336334,0.6749738356881214,0.7597544068132303,0.28680063887101004,0.6582145929167135,0.7274861828559044,0.7802423965241254,0.7580629056415376,0.7217611802674043,0.6380459868364817
0.3567964036436768,0.29470627559120915,0.2681430455022469,0.6790620094191523,0.7594903281177791,0.28391618393763857,0.6547739257264671,0.7229707762886971,0.7750481852928686,0.7534697953070393,0.7177764605150497,0.6317633985810753
0.34934342836862653,0.2932230299991644,0.2696230121357264,0.6822998430141287,0.753548557470126,0.283701637702925,0.6510340700848948,0.7180218906910378,0.7706380059455751,0.7488101181560991,0.7132648356714747,0.6252243781519788
0.35389802437004614,0.29575081474053644,0.2708069854425101,0.6790620094191523,0.754604872251931,0.28568023075639465,0.6513706570926363,0.7186359859841781,0.7712913658488778,0.7492095190547511,0.7135941513534875,0.6264638003248142
0.3591624275405182,0.297568312860366,0.27072625998977484,0.6761839351125065,0.7576417772496203,0.2866814465183914,0.6554844982983657,0.7235848715818373,0.7757668811865016,0.7531702446330504,0.7180069814924587,0.6324899564065305
0.3590441263456761,0.29669089997493103,0.2696768291042166,0.676903453689168,0.7588961510530138,0.28570406922691843,0.6576536145704776,0.7247046924105046,0.7774329489399235,0.7551006823098685,0.7201146018573404,0.6350115394478161
0.3499940849402579,0.29424667836550517,0.27064553453703954,0.6813186813186815,0.7526242820360467,0.28475053040596915,0.6552227084034556,0.7214535996821154,0.7735454575152724,0.7518721917124312,0.7167555819008101,0.6321480468416104
0.34685910327694314,0.2921993816328236,0.26943465274601086,0.6838042909471482,0.7523602033405955,0.2830341605282605,0.6496503234975131,0.7162157280641549,0.7672078664532358,0.745481777333999,0.7108608311927814,0.6249252072826738
0.35537678930557204,0.2945391493273168,0.2685735812501682,0.6795852956567242,0.7581699346405228,0.28398769934920975,0.6481169826844685,0.7160351118014666,0.7662604945934468,0.7444167082709269,0.7101034051241519,0.6227455338063083
0.3625340115935171,0.2974429681624467,0.2690579339665797,0.6753663003663004,0.761602957681389,0.28587093852058454,0.6536519690339954,0.7209839973991259,0.7711606938682174,0.7502745881178232,0.7149443456497399,0.6266774938028892
0.35963563231988643,0.2975265312943929,0.27048408363156906,0.6760858189429619,0.7582359543143855,0.28656225416577275,0.6572422304499046,0.7241267203699022,0.7746235013557218,0.7542353136961224,0.7190278601066983,0.6319770920591504
0.3534248195906779,0.29493607420406115,0.26997282243091253,0.6798142333856619,0.7553971083382847,0.2848458842880641,0.6545495343879727,0.7210562439042011,0.7708340139165659,0.7498086204027291,0.715668840150168,0.6286434738011796
0.35129539808352067,0.29303501295228546,0.2684928557974329,0.6819073783359498,0.75599128540305,0.2831056759398317,0.6493511350461872,0.7153126467507135,0.7659991506321258,0.7431519387585288,0.7101692682605546,0.6212924181553979
0.35466698213651965,0.2949778557700342,0.26943465274601086,0.6794544740973313,0.756717501815541,0.2846313380533505,0.6492763379333558,0.7154932630134017,0.7659664826369607,0.7429522383092029,0.7102351313969572,0.6209077698948628
0.35963563231988643,0.2972131695495947,0.2700804563678928,0.6763147566718997,0.7586980920314252,0.286180838637393,0.654624331500804,0.7208756276415129,0.7706380059455751,0.7479780329505741,0.7146808931041295,0.6264638003248142
0.3614693008399385,0.29683713545583684,0.2687619406398838,0.6761185243328101,0.7613388789859377,0.2853941691101099,0.6551479112906242,0.7221760647328686,0.7734147855346118,0.7504410051589282,0.7171507607192255,0.6309086246687752
0.35892582515083404,0.295312108297819,0.2679546861125313,0.6780154369440083,0.7608767412688981,0.28417840711339964,0.6529787950185123,0.720333778853448,0.7706706739407403,0.747445498419038,0.7135612197852862,0.6268057098897342
0.3555542410978351,0.29372440879084144,0.2674434249118747,0.6802066980638409,0.7596883871393675,0.2830341605282605,0.649126743707693,0.7152765234981757,0.7660318186272909,0.7424529871858878,0.7089508002371072,0.6205658603299428
0.3512362474860996,0.2945182585443302,0.2704033581788338,0.6807626896912612,0.7536145771439888,0.28479820734701666,0.6490519465948615,0.7162879745692302,0.7661624906079515,0.7424862705941089,0.7094447737601264,0.6202666894606377
0.35786111439725543,0.2975056405114064,0.27126442967467645,0.6766091051805339,0.7562553640985014,0.2868721542825813,0.6526048094543551,0.7207672578838998,0.770376661984254,0.746912963887502,0.7138576038990977,0.6269339259765793
0.36377617413935887,0.29802791008607,0.2692193848720502,0.6745486656200942,0.7620650953984287,0.28627619251948794,0.6548861213957141,0.7232958855615359,0.7721734017183366,0.749309369279414,0.7161298821049858,0.6317206598854603
0.3560274458772034,0.2945182585443302,0.26825067943922726,0.6794544740973313,0.7588961510530138,0.2838446685260674,0.650734881633569,0.7187804789943286,0.7679265623468688,0.7453153602928939,0.7118158466706185,0.6273613129327293
0.35301076540873066,0.29263808807554104,0.267201248553669,0.6817438513867087,0.7585000330098368,0.28229516794202486,0.6460974606380194,0.7125311563053137,0.7623076671784653,0.7398235979364286,0.7062174800764012,0.6206085990255578
0.3586300721637289,0.2942884599314782,0.26677071280574766,0.678898482469911,0.7621971347461542,0.28305799899878425,0.6475560043382326,0.7140122096593577,0.7633203750285845,0.7411216508570476,0.7078969900546664,0.6207795538080177
0.3580977167869395,0.2969833709367427,0.270457175147324,0.6769361590790163,0.757377698554169,0.2862285155784405,0.6527918022364337,0.720008669580609,0.7682532422985201,0.746679980029955,0.7135282882170848,0.6256517651081289
0.35466698213651965,0.29683713545583684,0.27185641632806823,0.6779827315541601,0.7537466164917145,0.2867768004004863,0.6559332809753543,0.7228985297836218,0.771552709810199,0.7493759360958562,0.7163274715141935,0.6270194033678093
0.3551401869158879,0.2948734018551015,0.26911175093506984,0.679421768707483,0.757377698554169,0.28441679181863694,0.6517446426567935,0.7181663837011885,0.7673058704387312,0.7453819271093359,0.7121451623526313,0.6234293529361484
0.35301076540873066,0.29349461017798945,0.2683044964077174,0.6810570381998955,0.7571796395325807,0.28329638370402155,0.647630801451064,0.7140122096593577,0.7639737349318872,0.7414877683474786,0.709148389646315,0.6193264381571075
0.35963563231988643,0.29516587281691314,0.2674434249118747,0.6779500261643119,0.761933056050703,0.2838685069965911,0.6483413740229628,0.7141205794169708,0.7637123909705662,0.7409552338159427,0.7086214845550945,0.6191127446790324
0.3647225836980954,0.29746385894543326,0.2680892285337567,0.6747121925693356,0.7639796659404502,0.28546568452168114,0.6517446426567935,0.7173355488928224,0.7674365424193917,0.7442835746380428,0.7113548047158006,0.6231301820668433
0.3604637406837809,0.2976518759923122,0.2702957242418535,0.6757587650444793,0.7588961510530138,0.286538415695249,0.6552227084034556,0.7208395043889753,0.7710626898827219,0.7484772840738891,0.7146808931041295,0.6289853833660998
0.3562640482668875,0.29464360324224953,0.2683044964077174,0.67929094714809,0.7589621707268766,0.28394002240816235,0.6517820412132092,0.7175161651555105,0.7679918983371992,0.7449159593942418,0.7105315155107687,0.6245405590221387
0.35443037974683544,0.2935990640929222,0.2678201436913059,0.6805991627420199,0.7585660526836997,0.28312951441035544,0.6456486779610308,0.7108694866885815,0.7626343471301167,0.7403561324679646,0.7056905749851807,0.6177878451149671
0.35460783153909853,0.2944138046293975,0.26878884912412887,0.6799123495552067,0.7574437182280318,0.2840353762902572,0.6459478664123566,0.711013979698732,0.7626670151252818,0.7407888167748377,0.7072054271224396,0.6197538251132576
0.35892582515083404,0.29781900225620456,0.2711837042219412,0.6760531135531136,0.7569155608371294,0.2870390235762474,0.651520251318299,0.7178051511758119,0.7681552383130248,0.745981028457314,0.7125074096028453,0.6256517651081289
0.3601088370992548,0.2978816746051642,0.27072625998977484,0.6756933542647829,0.7581699346405228,0.2868483158120575,0.6541755488238155,0.7197196835603078,0.7705400019600798,0.7475120652354801,0.7142857142857143,0.6268057098897342
0.3590441263456761,0.29602239491936155,0.26881575760837395,0.6774267399267401,0.7598864461609559,0.28496507664068277,0.6521186282209508,0.7163963443268432,0.767011858482245,0.7438841737393909,0.7105644470789698,0.6221471920676982
0.3577428132024134,0.2947480571571822,0.26776632672281575,0.6788003663003664,0.7604806232257212,0.28374931464397246,0.6471820187740753,0.7109417331936568,0.7629283590866028,0.7393909136295556,0.7057235065533821,0.6164629455509018
0.35803856618951857,0.2960432857023481,0.2693001103247854,0.677688383045526,0.7587641117052881,0.28517962287539633,0.6479673884588055,0.7130007585883033,0.763908398941557,0.7398901647528706,0.7057564381215833,0.616804855115822
0.3654323908671478,0.3001796607336843,0.27126442967467645,0.6723901098901099,0.7604806232257212,0.28842165486662374,0.6533153820262538,0.718527616226565,0.7690372741824835,0.7456481943751039,0.7105644470789698,0.6225318403282332
0.35886667455341303,0.30051391326146903,0.2746818071738019,0.6739599686028258,0.7526242820360467,0.2901141862738087,0.6574666217883991,0.7225372972582451,0.7728267616216393,0.7500748876684972,0.7140222617401041,0.6268911872809643
0.3637170235419378,0.29942759254616863,0.2710760702849609,0.673469387755102,0.7597544068132303,0.2878972085151017,0.6534649762519168,0.7180941371961131,0.7694946261147954,0.7475786320519221,0.7108937627609827,0.6236003077186084
0.36424937891872705,0.30139132614690395,0.2733632914457929,0.6717687074829933,0.7572456592064435,0.2900426708622375,0.6469202288791653,0.7115197052342593,0.7679265623468688,0.746480279580629,0.7101363366923533,0.6208650311992479
0.36501833668520056,0.30427425419904736,0.2767268519764282,0.6693158032443747,0.753548557470126,0.29316551050084627,0.6463592505329294,0.7114835819817216,0.7701806540132632,0.7487768347478782,0.7126391358756504,0.6241986494572186
0.37264876375251393,0.31039525361410547,0.28113984339262177,0.6624149659863946,0.7523602033405955,0.29862452025078073,0.6504356931822433,0.7149514142253369,0.776812257031786,0.7562323181893825,0.719949944016334,0.6337293785793658
0.3773216609487756,0.31354976184507394,0.2830503457740226,0.6586538461538461,0.7526903017099095,0.3012467520083912,0.6532779834698381,0.7204782718635987,0.7832151840841528,0.7628557164253619,0.7259105578607653,0.6411659116163775
0.3766118537797232,0.3118576084231637,0.28122056884535696,0.6601909994767139,0.7544728329042053,0.29948270518963505,0.6498373162795917,0.7181302604486509,0.7818104602920519,0.7608587119321018,0.7238029374958835,0.6362509616206514
0.37477818525967116,0.31066683379293053,0.28052094825498486,0.6615973312401884,0.7543407935564798,0.29850532789816203,0.6409738584090655,0.7098941588700647,0.7768775930221162,0.7567315693126976,0.7190607916748996,0.6305667151038551
0.37791316692298593,0.31440628394752235,0.2839114172698652,0.65783621140764,0.7518980656235558,0.3021287754177692,0.6352144807210443,0.7074016544449663,0.7773022769592631,0.7589282742552836,0.7213330698807877,0.6321053081459954
0.3906896959659293,0.3221358736525445,0.28802841535936285,0.6482208267922555,0.7540106951871657,0.3083744546949868,0.631736414974382,0.7063540801213742,0.7819411322727124,0.7652188384090529,0.7291707831126919,0.6434738011795881
0.4008635987223471,0.32681540904153084,0.2894545650243522,0.6417451596023025,0.7579718756189344,0.3116641636272617,0.6241819065784061,0.700971715493263,0.7812877723694097,0.7669828590447662,0.732628597773826,0.6500555603042996
0.4037028273985568,0.32604245007102867,0.2871942523477653,0.6415816326530613,0.7623291740938799,0.3102338553958378,0.6158420284977001,0.6924466278943756,0.7744601613798962,0.7616575137294059,0.7285121517486663,0.6480895803060092
0.40819827280255533,0.32209409208657136,0.28003659553857335,0.6434131344845632,0.7735525186505579,0.3047986841164271,0.6125509555331164,0.6898457537116642,0.7673058704387312,0.7541354634714594,0.7220575643812158,0.643174630310283
0.42375487992428723,0.321467368596975,0.27215240965476417,0.6396193092621665,0.7919059879844192,0.3009606903621064,0.6165899996260146,0.6949752555720117,0.7659664826369607,0.7520718921617573,0.7212342751761839,0.6429609368322079
0.43499349343428373,0.3206526280604997,0.2660172752468854,0.6371664050235479,0.8057701194956096,0.29776633531192637,0.6288193275739558,0.707329407939891,0.773480121524942,0.7572308204360126,0.7259434894289666,0.6483460124796991
0.43428368626523134,0.31672516085902896,0.2612275650512607,0.6404369440083727,0.811249752426223,0.2934038952060836,0.6348778937133027,0.7126034028103891,0.7753095292541897,0.7584623065401896,0.7265362576565896,0.6494144798700744
0.41251626641429084,0.311982953121083,0.2650485698140624,0.650150444793302,0.794414735591206,0.29237884097356315,0.6331201615617638,0.7071849149297403,0.7684165822743458,0.7524712930604093,0.7218599749720083,0.6439866655269681
0.3964864545131906,0.30782568730676024,0.26698598067970836,0.65783621140764,0.7830593516868026,0.2908770173305681,0.6281835521148884,0.6992377993714554,0.7591388716474471,0.7432850723914127,0.7132977672396759,0.6339430720574408
0.38560274458772037,0.3044204896799532,0.2675510588488551,0.663526949241235,0.776259325278933,0.2891844859233832,0.6338681326900781,0.7018747968067045,0.7601842474927314,0.7425195540023297,0.7108937627609827,0.6290708607573297
0.37140660120667224,0.3028118993899891,0.27191023329655845,0.668694400837258,0.7629893708325081,0.2901857016853799,0.6474438086689854,0.7145540584474226,0.7686452582405019,0.748077883175237,0.7145491668313245,0.6290708607573297
0.3695137820891991,0.2988844321885184,0.26773941823857067,0.6722919937205653,0.7670825906120022,0.28610932322582183,0.6551853098470399,0.722139941480331,0.771324033844043,0.7488766849725411,0.7143186458539156,0.625950935977434
0.3591624275405182,0.2916353304921869,0.26311115894841647,0.6808281004709577,0.7670165709381395,0.27993515936017543,0.6555966939676129,0.7202976556009103,0.7657051386756395,0.7418538858379098,0.7065797273266152,0.6156936490298317
0.3475689104459955,0.28639174396256367,0.2616311923149369,0.6881214024071168,0.7623291740938799,0.2762878733700446,0.6503982946258274,0.7137232236390565,0.7587141877103003,0.7337993010484273,0.6979845880260818,0.6059919651252245
0.34674080208210106,0.28632907161360405,0.26195409412587795,0.6884157509157509,0.7614709183336633,0.2763832272521395,0.6502860989565803,0.7125311563053137,0.7564600960439058,0.7317024463305042,0.6951854047289732,0.6031712112146338
0.35088134390157344,0.28772875407370263,0.2618464601888976,0.6861590790162219,0.7639136462665874,0.27712221983837515,0.6531283892441753,0.7158906187913161,0.75864885171997,0.7334997503744383,0.6960416255022065,0.6060347038208395
0.35525848811072996,0.2890239826188685,0.2615235583779566,0.6839678178963894,0.7667524922426883,0.27771818160146844,0.6559332809753543,0.7187082324892534,0.761033615367025,0.7362955566650025,0.698248040571692,0.6105650055560304
0.3514728498757838,0.2874780646778641,0.2612544735355058,0.6862244897959184,0.7649699610483924,0.2767408043099955,0.6540633531545683,0.7164685908319186,0.7580608278069975,0.7340655683141952,0.6958769676612,0.6072313872980597
0.3439015734058914,0.2858485836049135,0.26259989774775994,0.6895604395604396,0.7590942100746022,0.27640706572266327,0.6496503234975131,0.7109417331936568,0.7531279605370619,0.72957230820436,0.6918263847724428,0.600051286434738
0.3446113805749439,0.28618283613269824,0.26273444016898534,0.6891025641025641,0.7593582887700534,0.27664545042790056,0.6500991061745018,0.711013979698732,0.7534873084838785,0.729039773672824,0.6936705525917144,0.6011197538251133
0.3567964036436768,0.291259296398429,0.2637031456018083,0.6817765567765569,0.7649039413745296,0.2799589978306992,0.655858483862523,0.717480041902973,0.75864885171997,0.7343318355799633,0.7000592768227623,0.6078724677322849
0.3569147048385189,0.29222027241581017,0.2648871189085919,0.6809916274201989,0.7635835478972733,0.2810317290042671,0.658812969819365,0.721814832207492,0.7634837150044103,0.7387252454651355,0.7048343542119476,0.6114197794683306
0.35259671122678343,0.28933734436366676,0.26313806743266155,0.6844256933542648,0.763319469201822,0.27862404348137026,0.6565316578780059,0.7186721092367157,0.7620463232171442,0.7366616741554335,0.7017717183692288,0.6072313872980597
0.344847982964628,0.28660065179242916,0.26313806743266155,0.6887428048142334,0.7589621707268766,0.27705070442680396,0.6560454766446017,0.7172271791352094,0.7620463232171442,0.7341987019470793,0.6959098992294014,0.5976151807846825
0.3388146220276825,0.28618283613269824,0.2653445631407583,0.6907378335949764,0.7528883607314979,0.2778135354835634,0.6692097685029358,0.7312791243723584,0.7731861095684559,0.7403228490597437,0.6944938417967463,0.5902641251389008
0.3473323080563114,0.2922829447647698,0.26932701880903054,0.6835753532182105,0.7527563213837722,0.28305799899878425,0.6765398855604174,0.7385760213849655,0.7802423965241254,0.7508071226493593,0.7050978067575577,0.5982562612189076
0.35188690405773104,0.30180914180663493,0.27952533433791676,0.6748757195185767,0.7427873506304877,0.29299864120718017,0.6538389618160739,0.7132536213560668,0.7702786579987587,0.7625894491595939,0.7307185668181518,0.6292418155397898
0.3551401869158879,0.31194117155510986,0.29112289104754735,0.66604526425955,0.7303756519442793,0.30391666070704904,0.6136729122255881,0.6645233536827656,0.7452876416974291,0.766383757696788,0.7573272739247843,0.6655697068125481
0.3660830474387792,0.31657892537812315,0.2920915964803703,0.6593733647305077,0.7353271274839901,0.3069918234046104,0.5763491529226973,0.6206697251020482,0.7129136584887786,0.7572308204360126,0.7731673582295988,0.6982648089580306
0.4032296226191885,0.3158895295395671,0.2743050883943708,0.6496598639455783,0.7778437974516405,0.29871987413287565,0.5586222371816448,0.6062926705920602,0.6781875796282383,0.7265768014644699,0.7619706250411644,0.7184802119839303
0.43670886075949367,0.3185844405448316,0.2625460807792697,0.6383110936682366,0.8109856737307717,0.29504874967222106,0.5599685852126108,0.6135895676046672,0.6570513867563949,0.6943917457147611,0.7315089244549825,0.7221984785024361
0.44179581213770264,0.32967744631068774,0.2745472647525765,0.6282051282051283,0.7991021324354658,0.30668192328780186,0.5445603799693333,0.5966116389119677,0.619123844369671,0.6572474621401231,0.6940327998419284,0.7202324985041456
0.4426239205015971,0.35422411631987966,0.3057611064768722,0.6087454212454213,0.761206839638212,0.3345252568595199,0.49482029993642246,0.5378391070331973,0.5680964359217275,0.6406390414378432,0.6946914312059541,0.7484400376100522
0.452856973855436,0.3796481992145066,0.3338535640287383,0.5860478806907379,0.7324882815078892,0.36146272855133615,0.414338606529788,0.4410649134848102,0.4790434811015648,0.5955067398901647,0.6757557794902194,0.7700658175912471
0.4116290074529753,0.36172390741204974,0.32952129806528,0.6114599686028258,0.7147950089126559,0.349328947054757,0.40293204682299266,0.4024130332695156,0.36421547809610927,0.46873023797636876,0.5565764341697952,0.7016411659116165
0.32633384597184434,0.31405114063675105,0.30691817129941074,0.6723574045002617,0.6949230870799498,0.3121170945672126,0.48513407382475043,0.46844633890835535,0.32913005128875245,0.3739058079547345,0.4446420338536521,0.5963330199162322
0.2652904294333373,0.28501295228545165,0.2973118424239163,0.7119636316064888,0.6726084373143196,0.2913061097999952,0.5752271962302256,0.562402918758805,0.3981901930678515,0.4062905641537693,0.4526114733583613,0.5558594751688178
0.20750029575298715,0.26487423748642097,0.29763474423485725,0.7436878597592884,0.6399947184260909,0.2799589978306992,0.6613560716556341,0.6527471733554889,0.4877331678154912,0.47408886669995004,0.48926430876638344,0.5158987947687836
0.19117473086478176,0.24492353973426922,0.27939079191669136,0.7638343799058085,0.6532646728725159,0.2604829674128108,0.7349564306817759,0.732398945201026,0.5523831302472968,0.5202862373107006,0.5131067641441086,0.4858107530558168
0.19839110375014793,0.23905322971504972,0.26851976428167806,0.7664508110936683,0.6706278470984354,0.252306372023171,0.7615468042933543,0.7649098724849185,0.5843324295188005,0.5498751872191713,0.5373773299084502,0.48397298914437137
0.21974446941914114,0.2413929974095429,0.2618195517046525,0.7586996336996338,0.6907638476265927,0.2506853560275573,0.7607988331650398,0.7735433298414189,0.6127535853124694,0.581660842070228,0.565928999538958,0.49850414565347473
0.24689459363539573,0.24214506559705856,0.2504103543847375,0.7506214024071167,0.7199445434739552,0.24606069274595346,0.7553012453719287,0.7761080807715928,0.6402927052366796,0.6099184556498586,0.5905288809853125,0.5155996238994787
0.26623683899207384,0.24293891535054735,0.24268761940639885,0.7446363160648876,0.7401465636759753,0.24308088393048705,0.7419125621751002,0.7668244048694145,0.6576394106693673,0.6279247794974205,0.6064348284265297,0.5260706043251561
0.28344966284159473,0.2472215258627893,0.24034658127707673,0.7365253793825222,0.7526903017099095,0.2444873536913872,0.7276263136242942,0.758732796300979,0.6693998889288165,0.6408054584789482,0.6178620825923731,0.5338063082314729
0.29900626996332663,0.2556822929723406,0.24414067755563332,0.7256017791732078,0.756717501815541,0.2509952561443658,0.7183888701896107,0.7577574684824622,0.688151318153605,0.6597104343484772,0.6334716459197787,0.5464569621335157
0.3202413344374778,0.26792429180245675,0.2502758119635121,0.7101648351648352,0.7610087806166237,0.2606975136475244,0.7180896817382849,0.7660658165661236,0.7139263663388978,0.6837077716758195,0.6542185338865837,0.5650055560304299
0.33656689932568323,0.2780981031169048,0.2559535021392245,0.6976713762428048,0.7631874298540964,0.2690409783308303,0.7174913048356334,0.7709424556587076,0.7358139230995395,0.7045099018139457,0.6724626226700916,0.5825711599281991
0.3429551638471549,0.2841146486170301,0.26079702930333937,0.6911957090528519,0.7607447019211724,0.2746191804333834,0.697744867048132,0.7537839107033197,0.7439482538956584,0.7143950740555832,0.6807613778568135,0.5879134968800753
0.34526203714657516,0.2902147572491017,0.26760487581734527,0.685766614338043,0.7537466164917145,0.2811032444158383,0.6658812969819365,0.7269082108153019,0.7460063375910622,0.7198535530038276,0.6875452809062768,0.5919736729635011
0.3412989471193659,0.2939959889696666,0.2742781799101257,0.6839351125065412,0.7433155080213903,0.2862046771079168,0.6512584614233891,0.7147707979626485,0.749567149064062,0.7251456149109669,0.6932095106368965,0.5973587486109925
0.3555542410978351,0.2976518759923122,0.2725022199499503,0.6770996860282574,0.7534825377962632,0.287515792986722,0.6518942368824564,0.7156377560235525,0.7548593642808142,0.7309369279414212,0.6985773562537049,0.604367894691854
0.36424937891872705,0.30043035012952285,0.2721255011705191,0.672520931449503,0.7587641117052881,0.2889461012181459,0.6533153820262538,0.7180218906910378,0.7592695436281075,0.7356964553170243,0.7034841599156951,0.6113343020771007
0.35715130722820304,0.2990933400183839,0.2736323762882437,0.6755298273155416,0.7529543804053607,0.28885074733605093,0.6489023523691987,0.7138315933966695,0.7570481199568783,0.7342652687635214,0.7025950075742606,0.60825711599282
0.3528924642138886,0.2980696916520431,0.2742512714258806,0.6775248560962847,0.7498514557338086,0.2885170087487187,0.6423202064400314,0.7066430661416754,0.7522132566724381,0.7303711100016641,0.6986761509583086,0.6018035729549535
0.3567964036436768,0.3003676777805632,0.2754621532169093,0.674646781789639,0.7505116524724367,0.2903764094495697,0.6395153147088523,0.7048730267673301,0.7520499166966124,0.7311033449825262,0.6993677138905354,0.6003504573040431
0.3620016562167278,0.303417732096599,0.276995936818879,0.6708202511773941,0.7515019475803788,0.29280793344299033,0.6423950035528629,0.7086659682837843,0.7566887720100618,0.7362289898485604,0.704175722847922,0.6051371912129242
0.364071927126464,0.3045040528118994,0.2774802895352905,0.6693812140240711,0.7520961246451442,0.2936184414407972,0.6459478664123566,0.7126034028103891,0.7608376073960342,0.7397237477117656,0.7077981953500626,0.6097957090349603
0.35780196379983437,0.30183003258962143,0.2768613943976536,0.6732404500261643,0.749389318016769,0.2918305561515173,0.6433673660196717,0.7093884333345374,0.7582895037731534,0.7367948077883175,0.7055259171441743,0.6071031712112146
0.35259671122678343,0.2988217598395588,0.2753276107956839,0.6770015698587128,0.748333003234964,0.2894228706286205,0.6377575825573133,0.7024527688473071,0.7532259645225573,0.7326010983524712,0.701211881709807,0.6035131207795539
0.35815686738436064,0.3004930224784825,0.27497780050049786,0.6741562009419152,0.7518980656235558,0.29023337862642734,0.6371592056546618,0.7028140013726837,0.7528339485805757,0.7329339324346812,0.7021010340512415,0.6064620907769895
0.3661421980362002,0.30366842149243756,0.27543524473266423,0.669479330193616,0.7557272067075987,0.2922596486209445,0.6397771046037624,0.7050897662825562,0.7554800561889518,0.7365951073389914,0.7052953961667654,0.6098384477305753
0.3638353247367798,0.3034804044455586,0.2762424992600167,0.6702642595499739,0.7534825377962632,0.29249803332618185,0.6418714237630428,0.7077628869703428,0.7580934958021627,0.7380262938924945,0.7062504116446024,0.6140268399008463
0.35880752395599197,0.30174646945767525,0.27629631622850687,0.6730115122972266,0.7505776721462994,0.29154449450523257,0.640225887280751,0.7063902033739118,0.756002744111594,0.7353969046430354,0.703220707370085,0.6118899051200958
0.35301076540873066,0.30051391326146903,0.2773457471140651,0.6755952380952381,0.7460883343236283,0.29128227132947154,0.6337933355772467,0.6984792110681646,0.7491424651269152,0.7302379763687802,0.6973588882302575,0.6048807590392341
0.36430852951614817,0.30339684131361244,0.2759195974490757,0.6701988487702774,0.7541427345348913,0.29230732556199196,0.6330453644489323,0.6975038832496478,0.7493058051027408,0.730404393409885,0.6974906145030626,0.604453372083084
0.3625340115935171,0.30477563299072447,0.27850281193660364,0.6696101517530089,0.7499834950815342,0.2942382416744142,0.6368974157597517,0.7010800852508761,0.7533566365032178,0.7338991512730904,0.7014753342554172,0.6115052568595607
0.36495918608777955,0.30567393665914594,0.2785566289050938,0.6682365253793825,0.7513038885587905,0.29478652649646,0.6389917349190322,0.7038615756962758,0.7555127241841169,0.7366283907472124,0.7043074491207271,0.6140695785964613
0.35928072873536027,0.303647530709451,0.2785297204208487,0.6713762428048143,0.7481349442133756,0.2936184414407972,0.6332697557874266,0.6992739226239931,0.7516252327594656,0.7332001997004493,0.7011789501416058,0.6098811864261903
0.3507630427067314,0.30139132614690395,0.2794984258536717,0.6755298273155416,0.7421931735657225,0.29273641803141914,0.6263510228505179,0.6925911209045262,0.7456469896442456,0.728041271426194,0.6960086939340051,0.6047525429523891
0.3528924642138886,0.3019971588535138,0.2793100664639561,0.6744505494505495,0.7436456063907044,0.29299864120718017,0.6248176820374733,0.6903514792471914,0.7436542419391722,0.7266766516891329,0.6952183362971746,0.6051371912129242
0.36957293268662017,0.30665580345951365,0.27774937437774133,0.666176085818943,0.7548689509473823,0.29497723426064987,0.6267250084146753,0.6934942022179678,0.7451569697167685,0.729206190713929,0.6983139037080947,0.6100521412086504
0.36726605938719986,0.309079134285953,0.281893280951484,0.6649332810047096,0.7484650425826896,0.29819542778135355,0.6297542914843487,0.6949752555720117,0.7470843814315116,0.7319354301880512,0.7022327603240467,0.6149243525087614
0.36424937891872705,0.30797192278766605,0.28186637246723895,0.6666339612768185,0.7468145507361192,0.2975517890772128,0.6266876098582596,0.690495972257342,0.7446669497892915,0.7300049925112332,0.7009484291641969,0.6133430207710061
0.3585709215663079,0.30759588869390825,0.2839383257541103,0.6684981684981686,0.7410708391100547,0.29824310472240106,0.6197688769213509,0.6844272658310154,0.7371859788964752,0.7231818938259278,0.6955476519791872,0.6078297290366699
0.357033006033361,0.30983120247346874,0.28751715415870627,0.6671572475143904,0.7358552848748927,0.30110372118524875,0.6162534126182729,0.6805982010620236,0.7330371435105028,0.7201531036778166,0.692550879272871,0.6077869903410549
0.3654323908671478,0.31338263558118157,0.2882436832333235,0.6620879120879122,0.7396184062850729,0.3034637297670981,0.6172631736414974,0.6798034895061951,0.7319917676652185,0.7202196704942585,0.6938681420009222,0.6120608599025559
0.3673252099846208,0.3153463691819169,0.2899389177407637,0.6599947671376243,0.7386281111771308,0.3053231304679492,0.618684318785295,0.6812845428602392,0.7327431315540166,0.7210850391080046,0.6959098992294014,0.6161210359859818
0.35389802437004614,0.3142600484666165,0.2946748109678982,0.664573521716379,0.7252921370568428,0.30680111564042056,0.6150566588129699,0.677166492070946,0.7278429322792461,0.7166916292228324,0.6931765790686953,0.6144969655526114
0.3481012658227849,0.3142600484666165,0.2972849339396712,0.666176085818943,0.7188882286921502,0.30796920069608336,0.606417592280938,0.6677383231586173,0.7184672176668518,0.709901813945748,0.6877099387472831,0.6075305581673648
0.3514728498757838,0.3154299323138631,0.2972580254554261,0.6643445839874412,0.7208027992341717,0.30863667787074783,0.6027899323086129,0.6649568327132176,0.7151024141648427,0.7074721251456149,0.6852400711321873,0.6042824173006239
0.3577428132024134,0.31820840645107373,0.29798455453004336,0.6604199372056516,0.7234435861886841,0.3105199170421226,0.6065297879501852,0.6695444857855001,0.7189245695991638,0.7112997170910301,0.6890601330435355,0.60885545773143
0.36288891517804334,0.31977521517506474,0.2976616527191024,0.6577708006279436,0.7266785502079619,0.31128274809888196,0.6094468753506116,0.6717118809377597,0.7205579693574206,0.7133632884007322,0.6914641375222289,0.6118899051200958
0.3614101502425175,0.3188560207236567,0.2971503915184458,0.6589154892726322,0.7264804911863735,0.3105437555126463,0.6033883092112645,0.6636563956218617,0.7113129267256869,0.7044433349975037,0.6847131660409669,0.6067612616462946
0.3508221933041524,0.3178532631403025,0.3006754029545516,0.6626111983254841,0.7162474417376378,0.3115211328041193,0.5949362354613111,0.6536141314163927,0.7010225082486687,0.6953236811449491,0.6767437265362576,0.6007351055645782
0.34674080208210106,0.3193782902983204,0.3045233162015984,0.6625457875457876,0.7092493563081798,0.31409568762068224,0.5893638505553687,0.6461004948885598,0.6925614975008983,0.6888666999500749,0.6720674438516763,0.5992392512180528
0.3494617295634686,0.32303417732096595,0.30796760218496894,0.6589154892726322,0.7065425496798046,0.31771913514028943,0.589850031788773,0.6448723043022794,0.6887720100617426,0.6869362622732567,0.6713100177830468,0.6021454825198735
0.3455577901336804,0.32554107127935156,0.3129725802545543,0.6580651491365778,0.6982240707730902,0.32136642113042024,0.5884288866449756,0.6421269371094174,0.6827937669465225,0.6825428523880845,0.6690377395771586,0.6039832464313188
0.3388737726251036,0.32721233391827526,0.3181659177138552,0.6585884353741498,0.6881230606720803,0.3246084531216477,0.5812483638131568,0.6323014124191741,0.67145797262422,0.6732234980862041,0.6623526312322993,0.6017180955637235
0.336211995741157,0.32608423163700173,0.3179237413556495,0.660223704866562,0.6869347065425496,0.32384562206488837,0.5684206589625641,0.6168406603330564,0.6555159909836333,0.6579131303045431,0.6495422512020023,0.5932558338319516
0.3374541582869987,0.3282150915016295,0.32010332857950113,0.6581959706959707,0.6849541163266653,0.3260387613530716,0.5629604697258687,0.6076653541884911,0.6433634967822025,0.6478282576135795,0.6417374695382995,0.5893666125309855
0.3318348515320005,0.3313069273836383,0.32664209025105617,0.6573456305599162,0.6737967914438502,0.3306872631051992,0.5612775346871611,0.6047032474804032,0.6366012217830193,0.6436678315859543,0.6397286438780214,0.5918881955722711
0.3242044244646871,0.3333124425503468,0.33269649920619976,0.6578689167974883,0.6621113091701326,0.3345252568595199,0.5602677736639367,0.6017050175197776,0.629120250890203,0.6383424862705941,0.6364025554896925,0.5930421403538764
0.3182893647225837,0.33400183838890285,0.3362753276107957,0.6589809000523287,0.6544530270020466,0.3365038499129896,0.5520774898088935,0.5907957952534046,0.6160530528241482,0.6268597104343484,0.6278074161891589,0.587144200359005
0.310008281083639,0.33174563382635575,0.33713639910663834,0.6630363683935112,0.648709315375982,0.3355979880330878,0.5421668723587271,0.5781887801177618,0.6003070791545523,0.6132800798801796,0.616907067114536,0.5789383708009231
0.31414882290311136,0.333396005682293,0.33737857546484407,0.6605834641548928,0.6507559252657291,0.33664688073613197,0.5322936534649763,0.5670989415887007,0.5875012250498187,0.6023964053919121,0.6086412434960153,0.5746217625438073
0.31261090737016445,0.33579844572574574,0.34117267174340077,0.6591117216117217,0.6452762923351159,0.33969820496316955,0.5315830808930776,0.5650760394465918,0.5822090098330666,0.5982692627725078,0.6057761970625042,0.5777844260193179
0.31243345557790136,0.3379501963733601,0.3440249710733795,0.6574764521193094,0.6416452102726611,0.3421774058976376,0.5318822693444033,0.5630892605570206,0.5760674267420208,0.5931103344982526,0.6031746031746031,0.5789383708009231
0.303028510587957,0.3369265480070193,0.3469849043403386,0.6609105180533752,0.6327985739750445,0.3429163984838733,0.5264220801077079,0.5560091030596395,0.5657770082650029,0.5842902313196872,0.5963248369887374,0.5740234208051971
0.2949840293386964,0.3346703434444723,0.3477652503834459,0.6649005756148614,0.6273189410444312,0.341962859662924,0.5192041587194735,0.5464725643896977,0.5538858580248931,0.5737393909136295,0.5868405453467694,0.5657748525515002
0.2916715958831184,0.33356313194618536,0.34779215886769105,0.6666666666666666,0.6254703901762725,0.34136689789983077,0.5173342308986874,0.5431131019036954,0.5476789389435172,0.5673822599434182,0.5805835473885266,0.5620138473373794
0.29900626996332663,0.335234394585109,0.34663509404515247,0.6633307169021455,0.6309500231068857,0.3417959903692579,0.5228692172482142,0.5472672759455262,0.5485283068178106,0.5672491263105341,0.5800895738655075,0.564962817334815
0.3037974683544304,0.33400183838890285,0.3428679062508409,0.6629709576138149,0.6382782069056578,0.3394359817874085,0.5278432252515054,0.5525051475634866,0.5510437424455261,0.5677816608420703,0.5800895738655075,0.5662449782032652
0.29640364367680117,0.32940586613186257,0.3403116002475581,0.6685962846677134,0.6372879117977157,0.335669503444659,0.5293391675081343,0.5553950077664993,0.5517297703439941,0.566317190880346,0.5773562537048014,0.5619711086417644
0.2889506684017509,0.32409960725327985,0.33686731426418753,0.6748430141287284,0.6372879117977157,0.3311163555746264,0.5304237256441902,0.5578513889390601,0.5520237823004802,0.564686303877517,0.5735361917934533,0.5541926660398324
0.29740920383295877,0.3218851842567059,0.330167101687162,0.6742216117216118,0.6502937875486894,0.32687310782140216,0.536781480234863,0.5648592999313659,0.5582307013818562,0.5684806124147112,0.5743924125666864,0.5488930677835713
0.3123151543830593,0.3222821091334503,0.32392433334230286,0.6697736787022501,0.6662705486234898,0.3243462299458867,0.5490482067392198,0.5787667521583644,0.5723759432883605,0.5794974205358628,0.5815385628663637,0.5538080177792974
0.3150952324618479,0.31960808891117237,0.31918844011516834,0.6711145996860283,0.6735987324222619,0.32072278242627955,0.5599685852126108,0.5917711230719215,0.5860638332625527,0.5886836412048594,0.5873015873015872,0.5566715103855031
0.31491778066958476,0.3153672599649035,0.3138067432661519,0.6744832548403978,0.68013468013468,0.31593124985100957,0.5661019484647893,0.601127045479175,0.59615824376858,0.5956065901148277,0.591648554304156,0.556500555603043
0.31876256950195203,0.31085485083980946,0.30624545919328366,0.6769361590790163,0.6914900640390835,0.30999547069060046,0.5711881521373275,0.6082794494816314,0.6049459344680017,0.601764020635713,0.5944477376012646,0.5544063595179076
0.3217200993730037,0.3080345951366257,0.3012673896079434,0.678342490842491,0.6992803855548952,0.30618131540680354,0.5802386027899323,0.6201639995665209,0.6183398124857078,0.6124479946746547,0.6014292300599355,0.5562868621249679
0.33526558618242047,0.3087031001921952,0.2959664182116622,0.6740907901622187,0.713342576087674,0.30420272235333384,0.5922435393993792,0.636455586461005,0.6363725458168633,0.6277916458645365,0.6132187314759928,0.5620993247286094
0.3443747781852597,0.3081181582685719,0.2910959825633022,0.6719976452119311,0.7244338812966263,0.3017235214188658,0.6040614832267475,0.6512299967489072,0.6539479272157068,0.6424696288899983,0.623427517618389,0.5689802547226259
0.348337868212469,0.304796523773711,0.2849877566396685,0.6735020931449504,0.7341387733544595,0.2971226966077857,0.6079135345375668,0.6567207311346315,0.6636176537845874,0.6486270594108836,0.6253046170058618,0.5678263099410206
0.34674080208210106,0.3002632238656305,0.27987514463310287,0.6775248560962847,0.7394863669373473,0.29228348709146823,0.6106062305994989,0.6617779864899036,0.6718173205710366,0.654018971542686,0.6282355265757755,0.5664159329857253
0.3453211877439963,0.29892621375449147,0.2787988052632996,0.6789638932496076,0.7400145243282498,0.29102004815371046,0.6147948689180599,0.6700140880684897,0.6826304269706969,0.6636711599267764,0.6357439241256669,0.5702196768954612
0.35880752395599197,0.30224784824935236,0.27694211985038886,0.6726190476190477,0.7497854360599457,0.29209277932727834,0.6239949137963274,0.6825849799515948,0.697233020809513,0.6763188550507571,0.6466113416320884,0.578340029062313
0.3751330888441973,0.3043995988969666,0.2722869520759896,0.6664377289377289,0.7646398626790782,0.2912584328589478,0.6325591832155278,0.6933858324603548,0.7110189147692006,0.6879347645198868,0.6561944279786603,0.5849645268826397
0.36915887850467294,0.3013077630149578,0.27099534483222565,0.6704931972789117,0.7629233511586453,0.2889222627476221,0.6347282994876399,0.696420185673518,0.7171931658554115,0.692860708936595,0.65876309029836,0.5821010342764339
0.3607003430734651,0.29723406033258126,0.2696230121357264,0.6760204081632654,0.759820426487093,0.2860139693437269,0.6319982048692921,0.6958783368854532,0.718499885662017,0.694558162755866,0.6589277481393664,0.5756474912385674
0.3647817342955164,0.29802791008607,0.26878884912412887,0.6742543171114601,0.7631874298540964,0.2860854847552981,0.6339429298029097,0.6999241411696709,0.7253601646466957,0.7008154435014144,0.6643285253243759,0.577998119497393
0.37625695019519695,0.30124509066599814,0.26771250975432553,0.6685962846677134,0.7708457120221825,0.2874442775751508,0.642656793447773,0.7081963660007947,0.736663290973833,0.710900316192378,0.6724955542382929,0.586631336011625
0.38282266650893176,0.3015793431937829,0.26515620375104276,0.6665031397174255,0.7777117581039148,0.28649073875420156,0.6457982721866936,0.7122782935375501,0.7426742020842181,0.7157929772008653,0.6774352894684844,0.5919736729635011
0.3789778776765646,0.30028411464861704,0.26523692920377795,0.668563579277865,0.7754010695187165,0.28579942310901335,0.6466210404278395,0.7135426073763682,0.7458429976152364,0.7184889332667664,0.6807284462886123,0.5920591503547312
0.3717615047911984,0.29735940503050057,0.2647525764873665,0.6728806907378336,0.7720340661517131,0.28391618393763857,0.6434421631325031,0.711880937759636,0.7458756656104015,0.7183557996338824,0.6794441151287625,0.5879989742713052
0.37980598604045906,0.2983830533968413,0.2624115383580443,0.6698390894819466,0.7793622499504852,0.28346325299768765,0.6436665544709975,0.7124589098002385,0.7488484531704289,0.7208187718422365,0.6804649937430021,0.587229677750235
0.37980598604045906,0.2993858109801955,0.2637300540860534,0.6690541601255888,0.7777777777777777,0.2846074995828268,0.6483039754665471,0.7187804789943286,0.754826696285649,0.7252787485438508,0.68402160310874,0.5924010599196513
0.3774991127410387,0.29997075290381886,0.2655060140462288,0.6692503924646782,0.7742787350630487,0.2857279076974421,0.6527170051236022,0.7239461041072138,0.7593022116232727,0.730038275919454,0.6879075281564908,0.5974869646978375
0.38122560037856384,0.29913512158435696,0.26276134865323036,0.6688579277864992,0.7796923483197992,0.284059214760781,0.6493137364897716,0.7199725463280714,0.7578648198360067,0.729505741387918,0.6877099387472831,0.5938969142661766
0.37767656453330184,0.29667000919194453,0.2611737480827705,0.6717687074829933,0.7796923483197992,0.28193759088416886,0.6466958375406711,0.717154932630134,0.7564274280487407,0.727675153935763,0.6858987024962129,0.5892811351397556
0.37667100437714424,0.2961268488342943,0.26093157172456477,0.6724882260596546,0.7794282696243481,0.28150849841474174,0.6455364822917835,0.7164685908319186,0.7572441279278691,0.728207688467299,0.6853717974049924,0.5884690999230704
0.3834141724831421,0.29949026489512826,0.26219627048408367,0.6679748822605966,0.7816069188618207,0.28398769934920975,0.6498373162795917,0.7216342159448037,0.7618503152461534,0.7329006490264602,0.6899822169531714,0.5945807333960168
0.3819354075476163,0.30101529205314614,0.26483330194010174,0.6671899529042387,0.7775797187561894,0.28603780781425064,0.6528292007928495,0.7257161434815591,0.7659664826369607,0.7366949575636544,0.6940327998419284,0.5988118642619027
0.3738317757009346,0.29855017966073366,0.2653445631407583,0.671343537414966,0.77243018419489,0.2848697227585878,0.6506226859643219,0.723404255319149,0.7642350788932084,0.7347312364786154,0.6925179477046697,0.5967176681767672
0.36750266177688395,0.29595972257040193,0.2648871189085919,0.6751373626373627,0.7694592988710635,0.2831771913514029,0.6459478664123566,0.7182386302062639,0.7594328836039332,0.72990514228657,0.6879733912928934,0.591076160355586
0.37714420915651253,0.29781900225620456,0.26289589107445577,0.6710164835164836,0.7773156400607381,0.283344060645069,0.644938105389132,0.7167937001047574,0.7576688118650159,0.728307538691962,0.6862609497464269,0.5896657834002906
0.3874955637051935,0.3017255786746887,0.2632187928853968,0.6650968079539509,0.7826632336436257,0.2857279076974421,0.6501365047309174,0.7226095437633205,0.7627650191107772,0.7344982526210684,0.6920239741816505,0.5956064620907771
0.38844197326393,0.3029790256538815,0.26442967467642553,0.6638540031397174,0.7817389582095463,0.28696750816467614,0.654362541605894,0.7269804573203772,0.7679918983371992,0.7392244965884506,0.6965355990252255,0.6010770151294983
0.3871998107180883,0.3011406367510654,0.26259989774775994,0.665652799581371,0.783257410708391,0.28510810746382514,0.6510340700848948,0.724885308673193,0.7672405344484009,0.7370610750540855,0.6947572943423566,0.5994102060005129
0.3782089199100911,0.2988008690565722,0.2636762371175632,0.6699372056514915,0.7769195220175611,0.28424992252497083,0.6480047870152214,0.7207672578838998,0.7636470549802359,0.7321351306373772,0.6897187644075611,0.5924010599196513
0.3767893055719863,0.2986128520096933,0.2640798643812394,0.6704931972789117,0.7756651482141678,0.28432143793654197,0.6460600620816036,0.7180218906910378,0.7604455914540524,0.7296055916125811,0.6876111440426794,0.591076160355586
0.38406482905477346,0.3013495445809309,0.26429513225520007,0.6663396127681842,0.7794282696243481,0.2859901308732032,0.6493511350461872,0.7208756276415129,0.7627976871059424,0.7329339324346812,0.6910030955674109,0.5950935977433969
0.3923459126937182,0.3045040528118994,0.264591125581896,0.6615646258503403,0.7837195484254307,0.28792104698562543,0.6538763603724896,0.7270165805729147,0.7688412662114926,0.7392577799966716,0.6972271619574524,0.6012052312163433
0.3838873772625104,0.3011197459680789,0.2640798643812394,0.6665685504971219,0.7796263286459365,0.2857755846384896,0.6516324469875464,0.7236209948343749,0.7666851785305936,0.7362955566650025,0.6944609102285452,0.5975724420890675
0.37791316692298593,0.2988217598395588,0.2638376880230337,0.6700026164311879,0.7765234039743844,0.28434527640706575,0.6463218519765137,0.7178773976808873,0.7611316193525204,0.7319021467798301,0.6902456694987815,0.5924010599196513
0.37832722110493316,0.29827859948190855,0.262949708042946,0.6703296703296704,0.7778437974516405,0.28365396076187754,0.6451250981712107,0.7167214535996822,0.7601515794975663,0.7319687135962721,0.6904432589079892,0.5906915120950509
0.3848929374186679,0.30107796440210577,0.2635955116648279,0.6663069073783361,0.7807486631016042,0.28553719993325233,0.6489023523691987,0.7209478741465882,0.7640717389173827,0.7363288400732234,0.6954488572745835,0.595392768612702
0.38696320832840414,0.303877329322303,0.26623254312084604,0.6635596546310832,0.7786360335379943,0.2883024625140051,0.6528665993492652,0.724885308673193,0.7677632223710432,0.7401231486104176,0.6991042613449253,0.6003504573040431
0.3824677629244056,0.3023940837302582,0.2663939940263165,0.6659471480900053,0.7759952465834817,0.287515792986722,0.6515950484311306,0.7232597623089982,0.7657704746659698,0.7373606257280745,0.6967331884344333,0.5989828190443628
0.3844788832367207,0.3001378791677112,0.2625460807792697,0.6671899529042387,0.7818049778834091,0.28451214570073186,0.644938105389132,0.7158544955387783,0.7588775276861259,0.7314361790647361,0.6897846275439636,0.5925720147021113
0.38927008162782445,0.30057658561042866,0.26093157172456477,0.665521978021978,0.7864923747276688,0.284059214760781,0.644676315494222,0.7153487700032511,0.7571134559472086,0.7293060409385921,0.6876770071790819,0.591546286007351
0.3935289246421389,0.30224784824935236,0.26114683959852547,0.6630363683935112,0.7886050042912787,0.28510810746382514,0.6471820187740753,0.7185998627316404,0.7595635555845938,0.7333999001497753,0.6912994796812224,0.5935122660056416
0.39151780432982375,0.3029372440879084,0.262949708042946,0.6630363683935112,0.7852380009242754,0.2863000309900117,0.6512584614233891,0.7227901600260087,0.7631570350527588,0.7379264436678316,0.6958111045247976,0.5975724420890675
0.3895658346149296,0.3016837971087156,0.26222317896832875,0.6645408163265306,0.7850399419026869,0.28527497675749125,0.6512958599798048,0.722248311237944,0.7625363431446213,0.7372607755034115,0.6947243627741553,0.5954782460039321
0.38406482905477346,0.29919779393331664,0.2615235583779566,0.668040293040293,0.7827952729913513,0.28353476840925884,0.6442275328172333,0.7140483329118954,0.7557414001502728,0.7297387252454651,0.6865902654284397,0.5868450294897
0.38163965456051113,0.297798111473218,0.26082393778758445,0.6698063840920985,0.7823331352743117,0.28243819876516724,0.6414600396424699,0.7110862262038075,0.7529972885564014,0.7272757530371109,0.6841203978133439,0.5862894264467049
0.38921093103040344,0.30066014874237484,0.26106611414579023,0.6654565672422815,0.7862282960322176,0.28417840711339964,0.6457982721866936,0.7170104396199833,0.7569827839665481,0.7307039440838742,0.6880063228610946,0.5922301051371913
0.39530344256476996,0.3022269574663658,0.2603126765869279,0.6625457875457876,0.790585594507163,0.2847266919354455,0.6510714686413105,0.7225372972582451,0.7611642873476855,0.7351306373772674,0.6926826055456761,0.5980425677408326
0.3887968768484562,0.30057658561042866,0.26114683959852547,0.6656200941915229,0.7859642173367662,0.28415456864287586,0.6493511350461872,0.7204421486110609,0.7602822514782268,0.7352304876019303,0.6923532898636633,0.5959483716556971
0.37489648645451323,0.29813236400100274,0.26429513225520007,0.6713762428048143,0.7743447547369116,0.28415456864287586,0.6435169602453346,0.7137954701441318,0.7555127241841169,0.7301714095523381,0.6874794177698741,0.5892383964441406
0.37631610079261807,0.3005974763934152,0.26685143825848295,0.6690541601255888,0.7719680464778502,0.2867052849889151,0.6425819963349415,0.7133258678611423,0.7551533762373004,0.729505741387918,0.6860962919054205,0.5881699290537653
0.3830592688986159,0.30327149661569314,0.2672281570379141,0.6651295133437991,0.7752690301709909,0.2883739779255763,0.6464714462021768,0.7174077953978976,0.7589101956812911,0.7329672158429023,0.6898834222485676,0.5928284468758014
