Lead I,Lead II,Lead III,aVR,aVL,aVF,V1,V2,V3,V4,V5,V6
0.2966402460664853,0.2720397760508063,0.2663132685735813,0.7134680795395082,0.7281309830329437,0.2701613864454457,0.7076554844982984,0.7383231586172019,0.6233053477508086,0.5973040439340989,0.5846011987090826,0.5036327891272758
0.3092393233171655,0.2754240828946269,0.2649409358770821,0.7073194662480378,0.7368455799828347,0.2714963407947746,0.6959497363401773,0.7317126034028104,0.6379079415896246,0.6123814278582126,0.5980043469670026,0.5135054278143432
0.316988051579321,0.2791217514832456,0.2661787261523559,0.7022828362114076,0.7396844259589357,0.2741424110229088,0.6846553723026292,0.7275223061084419,0.6532292313220738,0.6270926942918954,0.6088717644734243,0.5193178904179845
0.3412397965219449,0.2904236650789671,0.2697037375884616,0.6867477760334905,0.7489271802997293,0.2821521371188825,0.6799057556378325,0.7299064407759276,0.675508804024697,0.6472291562656015,0.6266548113021142,0.534618343448158
0.3530107654087306,0.299636500376034,0.2762155907757716,0.6762820512820513,0.7474747474747474,0.2903048940379985,0.6771008639066532,0.7340967380702959,0.6971023488288524,0.6686969545681477,0.6451623526312323,0.5507735703906317
0.3641902283213061,0.3093298236817915,0.2836154239431693,0.6655873888016746,0.7446359014986464,0.2991012896612554,0.6659934926511837,0.7273778130982914,0.7126849825226227,0.6863038775170577,0.6614305473226635,0.5655611590734251
0.3692771796995149,0.3175399013955043,0.2918763286064096,0.6577708006279436,0.7373077176998745,0.3074447543445612,0.6378697782265605,0.7031029873929849,0.718989905589494,0.6967548676984523,0.6715405387604557,0.5740234208051971
0.3682716195433574,0.3208615358903651,0.2966122218335441,0.6554160125588698,0.7309698290090446,0.3114257789220244,0.6151314559258013,0.6826572264566703,0.7191532455653198,0.6987851555999334,0.6730553908977146,0.5753055816736474
0.374482432272566,0.3232430851508314,0.2968543981917499,0.6518511250654109,0.7341387733544595,0.3129037640944957,0.6084371143273869,0.6776360943539357,0.7202966253960994,0.6996505242136793,0.6740433379437528,0.5763313103684076
0.3810481485863007,0.3262513579008941,0.2977423781718376,0.6476975405546835,0.7367135406351092,0.315001549500584,0.6100078536968473,0.6792977639706679,0.724706804743393,0.7042103511399567,0.679048936310347,0.582400205145739
0.3862534011593517,0.32869557951032,0.298522724214945,0.644328885400314,0.7386281111771308,0.3167655963193402,0.6127379483151951,0.6834519380124986,0.7292803240665121,0.709469129638875,0.6837581505631298,0.5889392255748355
0.379805986040459,0.3282777638505891,0.3009175793127573,0.64645473574045,0.7321581831385752,0.317576104317147,0.6096712666891059,0.6798034895061951,0.7283656202018882,0.7096022632717589,0.6845155766317591,0.5894948286178306
0.3747781852596711,0.3268989721734771,0.3014288405134139,0.6489076399790686,0.7286591404238463,0.3170278194951011,0.6029395265342758,0.6731206877867284,0.7246088007578975,0.7064736228989849,0.6819469143120596,0.5870587229677751
0.3774399621436177,0.3269407537394501,0.3002986841751204,0.6481227106227107,0.7315640060738099,0.3165272116141028,0.6000224391338496,0.6708449228768558,0.7235634249126132,0.7052421367948077,0.6810906935388262,0.5846653560133346
0.38844197326393,0.3306593131110554,0.3000565078169147,0.642203035060178,0.7379679144385026,0.3185534816086199,0.6026777366393657,0.6745294946356971,0.7278429322792461,0.7104010650690631,0.6858987024962129,0.5903923412257458
0.3895066840175086,0.3317038522603827,0.3009175793127573,0.6410583464154893,0.7375717963953258,0.319530858900093,0.6058566139347021,0.6778889571216993,0.7314037437522459,0.7143285072391413,0.6889613383389318,0.5947944268740918
0.3898024370046137,0.3310562379877997,0.2999488738799344,0.6415162218733648,0.7388921898725819,0.3187203509022861,0.6025655409701186,0.6749990969186866,0.7297703439939891,0.7126310534198701,0.6879404597246921,0.5933413112231815
0.3876138649000355,0.3301370435363916,0.2997605144902188,0.6428244374672946,0.7379018947646397,0.3181243891391928,0.5962451849358614,0.6689665137448977,0.7247721407337232,0.7078382426360459,0.6840545346769412,0.5887255320967604
0.3824677629244056,0.3301788251023648,0.302128461103786,0.6442307692307693,0.7320921634647124,0.3191971203127607,0.5948240397920641,0.667449337138316,0.7234980889222828,0.7071060076551838,0.6831653823355068,0.5870159842721601
0.3876138649000355,0.3319545416562213,0.3021015526195409,0.6414181057038201,0.7350630487885389,0.3201983360747574,0.5981525113130634,0.6710255391395441,0.7276142563130901,0.7120319520718921,0.6872488967924651,0.5920164116591162
0.3958949485389803,0.3344196540486338,0.3015095659661491,0.6371664050235479,0.7404106423714266,0.3213425826598965,0.6009200044878268,0.6743850016255465,0.7314037437522459,0.7160925278748543,0.6916287953632352,0.5975297033934525
0.3889743286407193,0.333667585861118,0.3036891531900008,0.6396847200418629,0.7338086749851456,0.3218908674819424,0.5993118665619508,0.673156811039266,0.7300316879553103,0.7148610417706773,0.6915958637950339,0.5975724420890675
0.3794510824559328,0.3312442550346787,0.3049000349810295,0.6442307692307693,0.727008648577276,0.3210326825430881,0.5947118441228169,0.6672687208756276,0.7248048087288884,0.7104010650690631,0.6870842389514589,0.5925720147021113
0.3832958712883,0.3325394835798446,0.3048193095282943,0.6421376242804814,0.7292533174886116,0.3217478366587999,0.5924679307378736,0.6646317234403786,0.7229100650093103,0.7092028623731069,0.6858987024962129,0.5917599794854261
0.3873772625103514,0.3342943093507144,0.3052498452762156,0.6396193092621665,0.7310358486829074,0.3229159217144628,0.5957216051460413,0.6679550626738432,0.7267975564339617,0.7134964220336161,0.6898834222485676,0.5972305325241474
0.3895658346149296,0.3350463775382301,0.3051960283077254,0.6384419152276295,0.7323562421601636,0.32334501418389,0.5968809603949289,0.6692554997651989,0.7279082682695763,0.7160592444666333,0.6922874267272607,0.6015044020856484
0.3895658346149296,0.3351508314531629,0.3053305707289508,0.6383765044479331,0.7321581831385752,0.3234403680659848,0.5938890758816711,0.6664378860672615,0.7252621606612003,0.7149608919953403,0.6912994796812224,0.6013334473031883
0.3871998107180883,0.3349210328403108,0.3061109167720582,0.6391941391941391,0.7299135142272397,0.3236787527712222,0.5879427054115711,0.6596828378427194,0.7191205775701546,0.709668830088201,0.6862280181782258,0.5970595777416874
0.3837099254702473,0.335464193197961,0.3084250464171353,0.6397174254317112,0.7250940780352545,0.3250137071205511,0.5858483862522907,0.656648484629556,0.7155597660971547,0.7073057081045098,0.6850095501547784,0.5942815625267117
0.3910445995504554,0.3396214590122838,0.3104162742512714,0.6344518576661434,0.7267445698818248,0.3282557391117786,0.587680915516661,0.6590687425495793,0.7184672176668518,0.7109335996005991,0.6893894487255483,0.599837592956663
0.3953034425647699,0.3417314280939249,0.3111966202943789,0.6316391941391941,0.7281309830329437,0.3298052396958211,0.5881670967500655,0.6589603727919663,0.7189572375943288,0.7116991179896821,0.6908384377264045,0.6031284725190187
0.3903939429788241,0.3403317456338263,0.3116271560423001,0.6340920983778128,0.7248960190136661,0.3291854394622041,0.5840158569879204,0.6541921034569953,0.7140243703243933,0.7076718255949409,0.6871501020878615,0.599623899478588
0.3832958712883,0.3390365170886605,0.3131878481285149,0.637035583464155,0.7190202680398758,0.3291377625211567,0.576648341374023,0.6472564389697648,0.7070987553493843,0.7016142452987186,0.6810577619706251,0.5951363364390119
0.3841831302496155,0.3419194451408038,0.3164975916906601,0.6345499738356882,0.715455205651284,0.3322606021597654,0.5743296308762482,0.6447639345446664,0.7040279638038613,0.6997170910301215,0.6807284462886123,0.595691939482007
0.3843014314444576,0.343340018383889,0.3182735516508355,0.6334052851909996,0.713342576087674,0.3338577796848554,0.5745914207711583,0.6449445508073548,0.7044199797458431,0.7007488766849724,0.6838240136995323,0.599666638174203
0.3873181119129303,0.3461811648700593,0.3205607728116675,0.6303309785452643,0.7122202416320063,0.3364800114424658,0.5747784135532369,0.64501679731243,0.7037666198425403,0.7010151439507405,0.6856681815188039,0.6038550303444739
0.3835916242754052,0.3470794685384808,0.3234130721416463,0.6306580324437469,0.7066745890275302,0.3382678967317457,0.5701783911141031,0.6398511721995448,0.6976577047466597,0.6960891995340321,0.6817163933346506,0.6015471407812634
0.3720572577783035,0.345136625720732,0.3261577375346447,0.6354003139717426,0.6968376576219713,0.3383632506138406,0.5615767231384869,0.6289780731857096,0.6872692822841463,0.6867365618239307,0.6737469538299414,0.5940678690486366
0.367561812374305,0.3459931478231804,0.3293060301913194,0.6359563055991628,0.6904337492572785,0.3402703282557391,0.5561165339017915,0.621319943647726,0.6802456633236419,0.6795140622399733,0.6687413554633471,0.591503547311736
0.3757837454158287,0.3500041781565973,0.3307321798563087,0.630559916274202,0.6933386149072422,0.3431786216596343,0.5547701858708254,0.6199111367987573,0.6779262356669171,0.6787152604426693,0.6691036027135613,0.595221813830242
0.3789778776765646,0.3542450071028662,0.3347684524930711,0.6263409209837781,0.6901036508879647,0.347374192471811,0.5549571786529041,0.6186106997074017,0.674071412237431,0.6775836245631552,0.6697622340775868,0.599965809043508
0.3744232816751449,0.3548926213754491,0.3376207518230498,0.6270931449502878,0.6840958605664488,0.3490190469379485,0.5483750327237369,0.6099411190983637,0.6641076737120643,0.6696954568147778,0.6640321412105645,0.595691939482007
0.3607003430734651,0.3542032255368931,0.3430024486720663,0.6314429618001047,0.6698356110120814,0.3510214784619418,0.5387636037248963,0.5975869667304844,0.6514324915879913,0.6585787984689632,0.654844233682408,0.5890247029660655
0.3556133916952561,0.3562087407036016,0.3478997928046713,0.6312467294610151,0.6609889747144648,0.3543111873942168,0.5319570664572348,0.5885922768486075,0.6416320930384504,0.6509568979863537,0.6494105249291972,0.5876143260107702
0.3566189518514137,0.359321467368597,0.3514786212092672,0.6285321821036106,0.6571598336304217,0.3576962502085866,0.5293017689517185,0.5836795145034859,0.6347391460586064,0.6464636378765185,0.6468418626094975,0.5892811351397556
0.3569147048385189,0.3626222110804712,0.3555418023302747,0.6258830455259027,0.6523403974384365,0.3613673746692412,0.5268708627846965,0.5796698334718058,0.6270621671947992,0.6410384423364952,0.644404926562603,0.591503547311736
0.3547852833313616,0.3627057742124174,0.3566450501843231,0.6264063317634746,0.6498316498316498,0.361915659491287,0.5185309847039905,0.5694108297511108,0.6149423409885335,0.6300216342153436,0.636237897648686,0.5863321651423199
0.3407665917425766,0.3607838221776552,0.3605467803998601,0.6318027210884355,0.6371558724499901,0.3625354597249041,0.5067878379894536,0.555322761261424,0.5996210512560844,0.6160758861707438,0.6241520121188171,0.5775707325412429
0.3352655861824204,0.3621417230717807,0.3647983209105831,0.632260596546311,0.6289034132171386,0.3652053684235619,0.5002430906167022,0.5458584690965574,0.5879259089869655,0.6073556332168414,0.6163801620233156,0.573724249935892
0.3367443511179463,0.3657349377454667,0.3687538680946102,0.6290227629513344,0.6248762131115072,0.3689956852368352,0.4993455252627249,0.5430408553986201,0.5812616379732776,0.6033616242303211,0.6132187314759928,0.5765877425420977
0.3393469774044718,0.3680747054399598,0.3706105535075209,0.6264717425431712,0.6240179573512905,0.371141147583971,0.4977747858932645,0.5390672976194777,0.5733559831433145,0.5975703111998668,0.6091352170190344,0.5783827677579281
0.3355021885721046,0.3686805381465696,0.3731130425423136,0.6270604395604397,0.6188684227899913,0.3726191327564423,0.4906690601742773,0.529097279919084,0.5613994969128745,0.5873523048760192,0.6004742145820984,0.5753483203692623
0.3269845025434757,0.3664870059329823,0.3741624734278718,0.6311486132914705,0.6127946127946127,0.3718324632291592,0.4800478701522122,0.516598634541054,0.5463722191369116,0.5741055084040605,0.5896726602120793,0.5685101290708607
0.3156867384360582,0.3648784156430182,0.3772300406318112,0.6355311355311356,0.6027596223674654,0.3722615556985864,0.4761958188413928,0.5099158328215873,0.5373231844761688,0.5661174904310201,0.5838437726404532,0.5632532695102146
0.3214834969833195,0.3675942174312693,0.3780911121276538,0.6317700156985872,0.6049382716049382,0.3741924718110087,0.4780657466621789,0.5111801466604053,0.535951128679233,0.565651522715926,0.58453533557268,0.5656893751602702
0.3243227256595292,0.3684507395337177,0.3779027527379383,0.6303309785452643,0.6067208027992341,0.374597725809912,0.481282022513931,0.5132391720550519,0.534513736891967,0.564819437510401,0.5838437726404532,0.5681254808103257
0.3177570093457944,0.3655887022645609,0.3772031321475662,0.634386446886447,0.6038819568231332,0.3726668096974898,0.4808332398369423,0.510891160640104,0.5298095455881873,0.5596605092361457,0.5780807482052295,0.5605607316864689
0.3119602507985331,0.3620581599398345,0.3752926297661653,0.6387362637362637,0.6030237010629167,0.3697823547641183,0.4776917610980216,0.5077484376693278,0.5242559864101141,0.5527042769179563,0.570901666337351,0.5520984699546969
0.3139122205134272,0.3601570986880588,0.371955977719775,0.6396847200418629,0.608173235624216,0.3672316384180791,0.4802722614907065,0.5116497489433949,0.5254647022312241,0.5512730903644534,0.5691562932226832,0.5493204547397214
0.3198272802555306,0.3576084231637002,0.3659822942173668,0.6400771847200419,0.6188024031161286,0.3631314214879973,0.4887243352406597,0.5219087526640899,0.5338930449838294,0.5568979863538026,0.5719884080879932,0.5514146508248569
0.3302377854016326,0.356417648533467,0.3597126173882625,0.6381148613291471,0.6323364362580048,0.3596748432620563,0.4996821122704664,0.5338294260015172,0.5448694913593153,0.565185555000832,0.5769610748863861,0.556201384733738
0.3328995622855791,0.3537854098771621,0.3551112665823534,0.6394557823129252,0.6394665610351885,0.356146749624544,0.5073488163356895,0.5440523064696745,0.5535591780732417,0.5707771675819604,0.5793980109332807,0.5556030429951279
0.3271619543357388,0.3476017381131445,0.349756478217582,0.6458660387231816,0.6428335644021917,0.3502348089346587,0.510901679195183,0.549506917602861,0.5601254451014341,0.5740056581793975,0.5792333530922743,0.5497478416958714
0.3321306045191056,0.3452410796356647,0.3444555068213007,0.6463566195709054,0.6520763187429854,0.3465398460034804,0.5176708179064289,0.558501607484738,0.5710365554865899,0.5815609918455649,0.5838437726404532,0.5483374647405762
0.3440198746007335,0.3444263390991894,0.337997470602481,0.6436747776033491,0.6666666666666666,0.3432262986006818,0.530049740080033,0.5745403316114582,0.5870765411126719,0.5942752537859877,0.5925047750773892,0.5529105051713822
0.3567372530462558,0.3438205063925796,0.3314318004466808,0.6406658817373104,0.6817851719812503,0.3399604281389306,0.5436628146153559,0.5914460137990825,0.6039658946130476,0.6087202529539024,0.6032075347428044,0.560859902555774
0.3578611143972554,0.3411047046043285,0.3274493447784087,0.642464678178964,0.6873308245857265,0.3366468807361319,0.5514791129062419,0.6021746198027671,0.6164124007709647,0.618239307705109,0.6098267799512612,0.5628686212496795
0.3494617295634686,0.3356522102448399,0.3242203266689987,0.6490711669283099,0.6866046081732355,0.3320937328660993,0.5538352219604323,0.6062565473395224,0.6245467315670837,0.6231985355300382,0.6107159322926957,0.5593213095136337
0.3544303797468354,0.3339600568229297,0.3197804267685601,0.6490057561486133,0.6947910477322241,0.3291616009916804,0.5597441938741166,0.6150344977061735,0.6358498578942211,0.6321517723414877,0.6163801620233156,0.5598341738610138
0.3693363302969361,0.3349837051892705,0.3143180044668084,0.6440672422815281,0.709843533372945,0.3273498772318768,0.5710385579116647,0.6282194848824189,0.6511384796315051,0.6452654351805625,0.6269182638477244,0.5664159329857253
0.3789187270791435,0.3351717222361494,0.3102010063773108,0.641287284144427,0.7202086221694064,0.3256335073541682,0.5808369796925839,0.6411516092909006,0.6659044134461468,0.6575802962223332,0.6370282552855167,0.5744508077613472
0.3786229740920383,0.3335004595972257,0.3081828700589296,0.6426936159079017,0.7225193107546047,0.3237741066533171,0.5843524439956618,0.6463894809088611,0.6742020842180916,0.6630387751705774,0.6410459066060726,0.5744508077613472
0.3799242872353011,0.3323723573159522,0.3061647337405484,0.6431841967556254,0.7257542747738825,0.3222246060692746,0.5843524439956618,0.6482678900408193,0.6795923034203392,0.6655683141953735,0.6427583481525391,0.5723566116762118
0.3830001183011948,0.3310353472048132,0.3030164410838737,0.6434131344845632,0.7313659470522215,0.3200791437221388,0.5850630165675605,0.6502907921829282,0.685080526608082,0.6694957563654518,0.644898900085622,0.5718437473288316
0.3918135573169289,0.332288794184006,0.3006215859860614,0.6399790685504972,0.7391562685680332,0.3197454051348066,0.592542727850705,0.6589242495394285,0.6959916369932377,0.6794142120153104,0.653065928999539,0.5774425164543978
0.3985567254229268,0.333855602907997,0.2995721551005032,0.636904761904762,0.7442397834554697,0.3201744976042337,0.5989752795542094,0.6680995556839938,0.7068047433928981,0.6895656515227159,0.662550220641507,0.5850927429694847
0.3964273039157696,0.3331453162864544,0.2996259720689934,0.6380494505494506,0.7429854096520763,0.319793082075854,0.5994988593440295,0.6697973485532638,0.7110189147692006,0.693459810284573,0.6653494039386155,0.5841097529703394
0.3928782680705075,0.3313278181666249,0.2988994429943761,0.6404369440083727,0.7418630751964085,0.3184342892560013,0.5976663300796591,0.6683885417042951,0.7120642906144851,0.692228324180396,0.6639333465059607,0.5808188734079837
0.3960724003312433,0.3305966407620957,0.2965314963808089,0.6401425954997384,0.746550472040668,0.31695630408353,0.596319982048693,0.667340967380703,0.7136976903727419,0.6930271259777001,0.6639333465059607,0.5797076673219933
0.4014551046965575,0.3324768112308849,0.2964776794123187,0.6371664050235479,0.7496533967122202,0.3180051967865742,0.599947642021018,0.6739515225950945,0.7208519813139068,0.7004493260109835,0.6708819073964303,0.586802290794085
0.4026972672423992,0.3339182752569566,0.2977692866560826,0.6356946624803769,0.7487291212781408,0.3193878280769506,0.605594824039792,0.6807065708196366,0.727581588317925,0.7071725744716258,0.6775670157412895,0.5922728438328062
0.4028155684372412,0.3325394835798446,0.295939509727417,0.6367412349555207,0.7511058295372021,0.3178144890223843,0.6057818168218707,0.680453708051873,0.7283982881970534,0.7076052587784989,0.6778304682868999,0.5919736729635011
0.3950668401750858,0.3292596306509567,0.29526679762129,0.6414508110936683,0.7475407671486103,0.3156451882047248,0.6021915554059614,0.6755770689592892,0.7245761327627325,0.7033449825262106,0.6736810906935388,0.5858620394905548
0.3940021294215071,0.3294476476978357,0.2959664182116622,0.6416143380429095,0.7460883343236283,0.3160504422036282,0.6005460189236695,0.6755770689592892,0.7256215086080168,0.7039773672824097,0.6742409273529605,0.5843234464484144
0.4005086951378209,0.3304504052811899,0.2942980921884671,0.6389979068550498,0.7518320459496929,0.3158835729099621,0.603986686113916,0.6806704475670989,0.7309790598150991,0.7087368946580129,0.6781927155371139,0.5871869390546202
0.4055364959186088,0.332978190022562,0.2952398891370449,0.6356292517006803,0.7534165181224003,0.3177429736108131,0.608698904222297,0.6861250587002854,0.7357812551043743,0.7136295556665002,0.6826714088124877,0.5935550047012565
0.4063054536850822,0.3336466950781315,0.2958049673061916,0.6349097331240189,0.7531524394269492,0.3183866123149539,0.6086615056658814,0.6859444424375971,0.736663290973833,0.7142952238309203,0.6835934927221233,0.5949653816565519
0.3980835206435585,0.3309726748558536,0.2960471436643974,0.6392595499738357,0.748333003234964,0.31695630408353,0.6040988817831632,0.680887187082325,0.7325144555878607,0.7105674821101681,0.6798392939471778,0.5895803060090606
0.3961315509286644,0.3304295144982033,0.2962624115383581,0.6402407116692831,0.7469465900838449,0.3167417578488164,0.6020045626238828,0.6794061337282808,0.7307830518441084,0.709469129638875,0.6783903049463216,0.5863321651423199
0.402519815450136,0.3334168964652795,0.2972042084869359,0.6361525379382522,0.749389318016769,0.3188633817254285,0.6073525561913311,0.6843911425784778,0.7361079350560257,0.7147279081377933,0.6834617664493183,0.5925720147021113
0.4106234472968177,0.334544998746553,0.294943895810349,0.6330128205128206,0.7566514821416781,0.3185058046675725,0.6109428176072403,0.687425495791641,0.7393747345725393,0.7191546014311866,0.6873147599288678,0.5979143516539875
0.4083757245948184,0.3342525277847413,0.2956435164007212,0.633863160648875,0.7545388525780682,0.3186488354907149,0.6091476868992858,0.6853303471444568,0.7383946947175852,0.7181560991845564,0.6859974972008168,0.5966321907855373
0.4037619779959777,0.3331453162864544,0.2962893200226031,0.6360217163788592,0.7511718492110648,0.318291258432859,0.6044354687909048,0.6803814615467977,0.7340171833654568,0.7138292561158263,0.6819139827438583,0.591460808616121
0.4001537915532946,0.3324768112308849,0.2970427575814655,0.6375261643118786,0.7482009638872383,0.3182674199623352,0.6031265193163545,0.6783946826572266,0.7329064715298422,0.7126310534198701,0.681518803925443,0.5896657834002906
0.4065420560747663,0.3332288794184005,0.2951053467158195,0.6351713762428048,0.7542087542087542,0.3178383274929081,0.6058940124911179,0.6815374056280028,0.7362386070366862,0.7154268597104343,0.6840545346769412,0.5923155825284212
0.4104459955045546,0.3349419236232974,0.2955627909479859,0.6327511773940345,0.7557932263814616,0.3190064125485709,0.6089980926736228,0.6859083191850595,0.7400607624710072,0.7198535530038276,0.6883685701113087,0.5975297033934525
0.4081982728025553,0.3356731010278265,0.2975271102978769,0.6327838827838829,0.7520961246451442,0.3202936899568523,0.6098582594711845,0.6862334284578984,0.740256770441998,0.7198202695956065,0.6878745965882895,0.5980425677408326
0.4012776529042943,0.3325394835798446,0.2966391303177892,0.6371664050235479,0.749389318016769,0.3181005506686691,0.6037622947754216,0.6796589964960444,0.7348012152494201,0.7145947745049093,0.6816175986300468,0.5915890247029661
0.3985567254229268,0.3318500877412885,0.2969889406129753,0.6384419152276295,0.7474087278008846,0.3178860044339555,0.6002468304723438,0.6767691362930319,0.7325144555878607,0.7135629888500582,0.6803003359019957,0.5886400547055305
0.4017508576836626,0.3333124425503468,0.2974194763608966,0.6364141810570383,0.748663101604278,0.3188872201959522,0.604136280339579,0.6810316800924756,0.7352912351768972,0.7177234148776834,0.6845155766317591,0.5919736729635011
0.4054773453211878,0.3356522102448399,0.2987379920889056,0.6335688121402407,0.7491252393213177,0.3208181363083744,0.6084371143273869,0.6853303471444568,0.7393747345725393,0.7217839906806457,0.6890601330435355,0.5981280451320626
0.4096770377380812,0.3357148825937996,0.2968813066759949,0.6323587127158556,0.7537466164917145,0.3200314667810913,0.6076891431990725,0.6840299100531012,0.7382966907320898,0.7202529539024796,0.6886978857933215,0.5976579194802975
0.4038211285933988,0.3328737361076293,0.295912601243172,0.6362179487179488,0.7516339869281045,0.3179813583160504,0.6027151351957816,0.6791171477079797,0.7335924994283101,0.7154601431186554,0.6841862609497465,0.591546286007351
0.398970779604874,0.3301161527534051,0.2945671770309179,0.6397174254317112,0.7505776721462994,0.3158120574983909,0.5981525113130634,0.6744933713831593,0.7298030119891543,0.7124313529705442,0.6802674043337944,0.5880844516625353
0.4080799716077132,0.3328319545416562,0.2939213734090359,0.6350732600732601,0.7564534231200897,0.3170754964361487,0.6012939900519841,0.6772387385760215,0.7326451275685212,0.7167249126310534,0.6837252189949287,0.5930421403538764
0.4131669229859221,0.3347539065764184,0.2940828243145064,0.632162480376766,0.7590942100746022,0.3182435814918115,0.6051086428063877,0.682151500921143,0.7365652869883376,0.7209851888833416,0.6871501020878615,0.5978288742627575
0.4088489293741867,0.3339182752569566,0.2949708042945941,0.633993982208268,0.7555951673598732,0.3181720660802403,0.6049964471371405,0.6808149405772496,0.734278527326778,0.7191546014311866,0.6861621550418231,0.5950935977433969
0.3993256831894002,0.3305339684131361,0.294943895810349,0.6392595499738357,0.7503796131247111,0.3162173114972944,0.6005460189236695,0.6759383014846657,0.7281042762405672,0.7130304543185222,0.6810577619706251,0.5880844516625353
0.402401514255294,0.3303250605832706,0.2932755697871539,0.6385727367870225,0.7541427345348913,0.31535912655844,0.597404540184749,0.672831701766427,0.7265688804678058,0.7109668830088199,0.679048936310347,0.5862466877510899
0.4039394297882409,0.3317874153923289,0.2944595430939375,0.6370028780743067,0.7534825377962632,0.3167179193782927,0.5998354463517709,0.6749629736661489,0.7299663519649799,0.7131635879514062,0.6812224198116315,0.5900931703564407
0.4087306281793446,0.3337093674270912,0.2947555364206334,0.6341902145473575,0.7558592460553244,0.317933681375003,0.6045476644601518,0.6802008452841094,0.7346052072784294,0.7171575969379264,0.6849436870183758,0.5966749294811523
0.4122796640246066,0.3341689646527951,0.2937330140193203,0.6328492935635792,0.7590942100746022,0.3177429736108131,0.6037622947754216,0.6791532709605173,0.7331351474959982,0.7166916292228324,0.6836264242903247,0.595179075134627
0.4048858393469774,0.3320172140051808,0.2942980921884671,0.6365777080062796,0.754274773882617,0.3167655963193402,0.5989752795542094,0.6746378643933101,0.7280716082454021,0.7119321018472291,0.6779292629915037,0.5885545773143004
0.3993848337868212,0.3295938831787415,0.2937061055350752,0.6399790685504972,0.7518980656235558,0.3151445803237264,0.5975167358539961,0.6731206877867284,0.726144196530659,0.709335996005991,0.6757228479220181,0.5848363107957946
0.4026972672423992,0.3308055485919612,0.2937599225035654,0.6381475667189953,0.7536805968178516,0.3158597344394384,0.6000224391338496,0.6765885200303435,0.7287903041390351,0.7121650857047761,0.6795099782651649,0.5891956577485256
0.405950550100556,0.3335213503802122,0.2957780588219466,0.6351059654631083,0.7530204000792236,0.318291258432859,0.6037622947754216,0.6814651591229275,0.7323511156120349,0.7166583458146113,0.6841862609497465,0.5945807333960168
0.4040577309830829,0.3330408623715216,0.2960202351801523,0.6359890109890111,0.7516339869281045,0.3181243891391928,0.6016305770597256,0.6793338872232055,0.7303256999117964,0.7151605924446662,0.6825067509714813,0.5925292760064963
0.4003903939429789,0.3310353472048132,0.2951053467158195,0.6385727367870225,0.750775731167888,0.3165748885551503,0.5976663300796591,0.6747101108983853,0.7257521805886773,0.7102013646197369,0.6775999473094909,0.5868877681853151
0.398970779604874,0.330262388234311,0.2947555364206334,0.6395866038723182,0.7503796131247111,0.315978926792057,0.5953850181382999,0.6716396344326843,0.7238247688739342,0.7079380928607089,0.6754264638082066,0.5840242755791094
0.4036436768011356,0.3324141388819253,0.2954013400425154,0.6366104133961277,0.7521621443190071,0.3175045889055758,0.5983395040951419,0.6739515225950945,0.7255888406128517,0.709868530537527,0.6770730422182705,0.5878280194888452
0.4105642966993967,0.3350881591042032,0.2956973333692113,0.6325876504447934,0.755661187033736,0.3191494433717133,0.6023037510752086,0.6785391756673772,0.7287249681487048,0.7134298552171742,0.6815517354936441,0.5929139242670314
0.4050041405418195,0.3337302582100777,0.2964507709280736,0.6352040816326532,0.7516339869281045,0.3186965124317624,0.6015931785033097,0.6776360943539357,0.7275489203227598,0.7124313529705442,0.6822103668576698,0.5924437986152663
0.3995031349816634,0.3318500877412885,0.2965584048650539,0.6381802721088436,0.7484650425826896,0.317671458199242,0.5983769026515577,0.6736986598273309,0.7234327529319526,0.7074721251456149,0.6781268524007112,0.5875288486195401
0.3994439843842423,0.3315785075624634,0.2962624115383581,0.6384092098377814,0.7487951409520036,0.3174092350234809,0.596319982048693,0.6714951414225337,0.7216686811930352,0.7049425861208187,0.6755252585128103,0.5833404564492692
0.4039394297882409,0.333855602907997,0.2971503915184458,0.6354003139717426,0.7501815541031227,0.3191017664306658,0.5991248737798721,0.6746017411407723,0.7249354807095489,0.7085039108004659,0.6779951261279062,0.5877852807932302
0.4126345676091329,0.3357566641597727,0.2956166079164761,0.6315083725798012,0.7569815805109923,0.3194831819590455,0.6039492875575003,0.6790087779503667,0.729051648100356,0.7122982193376601,0.6814200092208391,0.5922301051371913
0.4143499349343428,0.3342734185677279,0.2929526679762129,0.6321951857666144,0.7611408199643493,0.3174569119645283,0.60264033808295,0.6766607665354188,0.7273855803469341,0.7110334498252621,0.6797075676743726,0.5903496025301308
0.4036436768011356,0.3316829614773961,0.2944864515781826,0.6371991104133962,0.7533504984485376,0.3166702424372452,0.5976663300796591,0.6717841274428349,0.7236287609029434,0.7066400399400898,0.6760192320358296,0.5856910847080948
0.3983201230332426,0.3310562379877997,0.2960740521486425,0.639161433804291,0.7483990229088268,0.3170278194951011,0.5940760686637496,0.6695444857855001,0.7214726732220444,0.7044433349975037,0.6736152275571363,0.5842807077527994
0.4071927126463978,0.3336049135121584,0.2953206145897802,0.6346807953950812,0.754274773882617,0.3181482276097165,0.5970305546205916,0.6724343459885128,0.7243801247917415,0.7078715260442668,0.6759863004676283,0.587144200359005
0.412812019401396,0.3353806300660148,0.2950515297473293,0.6317373103087389,0.7577738165973459,0.3190302510190946,0.6026029395265344,0.6773832315861721,0.7284962921825487,0.7126310534198701,0.6810577619706251,0.591546286007351
0.4091446823612919,0.3341898554357816,0.2951860721685548,0.6336996336996338,0.7555291476860103,0.3184104507854776,0.6023037510752086,0.6774554780912474,0.7277775962889157,0.7119986686636711,0.6812224198116315,0.5902641251389008
0.3976694664616113,0.3310771287707863,0.2963969539595835,0.6392922553636841,0.747606786822473,0.3171708503182436,0.5981151127566476,0.6733374273019543,0.7233347489464572,0.7064403394907638,0.6768425212408615,0.5840242755791094
0.3982609724358216,0.3302832790172975,0.2951322552000646,0.6397501308215595,0.7495213573644944,0.3161457960857232,0.5957216051460413,0.6692193765126613,0.7205906373525858,0.7025461807289066,0.673121254034117,0.5801350542781434
0.4105642966993967,0.3333542241163199,0.2934639291768695,0.6339612768184197,0.758434013335974,0.3171708503182436,0.5979281199745691,0.6722176064732869,0.7235960929077783,0.7060076551838909,0.6764473424224462,0.5854773912300196
0.4125162664142908,0.3341898554357816,0.29362538008234,0.6327838827838829,0.7592922690961905,0.3177191351402894,0.6013687871648155,0.6769497525557201,0.7278102642840809,0.710467631885505,0.6807613778568135,0.5908197281818959
0.4061871524902402,0.3332497702013872,0.2953475230740253,0.6352367870225014,0.7536805968178516,0.3179575198455267,0.6015931785033097,0.6767691362930319,0.728528960177714,0.7108337493759361,0.6816834617664493,0.5923583212240363
0.4009818999171891,0.3305548591961226,0.2942173667357318,0.6388016745159603,0.7521621443190071,0.3159074113804858,0.5962825834922773,0.6707726763717805,0.7226160530528242,0.7043767681810618,0.6754923269446091,0.5844089238396445
0.4039985803856619,0.3314322720815575,0.293975190377526,0.6372972265829409,0.7541427345348913,0.3162888269088655,0.5951606267998056,0.6693638695228119,0.7211786612655582,0.7020136461973705,0.6733847065797274,0.5827421147106591
0.4064829054773454,0.3326439374947773,0.2944057261254473,0.6356292517006803,0.7550009902951079,0.3171708503182436,0.5973297430719174,0.6722176064732869,0.7242494528110811,0.7050424363454817,0.676183889876836,0.5855201299256347
0.4152371938956583,0.3350672683212166,0.2935446546296048,0.6313121402407117,0.7609427609427609,0.3181720660802403,0.6014809828340626,0.6772387385760215,0.729509000032668,0.7099350973539691,0.68092603569782,0.5920591503547312
0.4090263811664498,0.3344614356146068,0.295589699432231,0.6335361067503925,0.754934970621245,0.3187441893728098,0.6011817943827368,0.6765523967778059,0.7288883081245304,0.7099683807621899,0.6804979253112033,0.5896230447046756
0.4026972672423992,0.3314322720815575,0.2945671770309179,0.6376242804814234,0.7526903017099095,0.3165510500846266,0.5974419387411646,0.6710977856446195,0.7238247688739342,0.7054418372441337,0.676085095172232,0.5834686725361142
0.4043534839701881,0.3322261218350464,0.2948362618733687,0.6365450026164312,0.7532844787746749,0.3171470118477199,0.5953476195818843,0.6684246649568327,0.723040736989971,0.7050091529372607,0.6747349008759798,0.5816309086246688
0.4100910919200284,0.3387858276928219,0.3006754029545516,0.6298403976975406,0.7493232983429061,0.3234642065365086,0.5987134896592993,0.6727955785138894,0.7303256999117964,0.7130637377267431,0.6814858723572417,0.5892811351397556
0.4183721755589732,0.3444472298821759,0.3042004143906573,0.6231357927786499,0.7495873770383573,0.3282557391117786,0.6030891207599387,0.6770581223133331,0.7370879749109798,0.7210517556997835,0.6885002963841138,0.5968458842636123
0.4166568082337631,0.3466616528787498,0.3078330597637435,0.6218602825745683,0.7442397834554697,0.3311163555746264,0.6011817943827368,0.6741682621103204,0.7381006827610991,0.7227159261108337,0.6903773957715866,0.5982135225232926
0.4138767301549745,0.3463065095679786,0.308640314291096,0.6229068550497122,0.7416650161748201,0.3312832248682925,0.5960207935973671,0.6698695950583391,0.7363039430270164,0.7203195207189216,0.6886320226569189,0.5960338490469271
0.4151188927008163,0.34490682710788,0.3062723676775287,0.623659079016222,0.7452300785634118,0.3294238241674414,0.5935150903175138,0.6693638695228119,0.7362712750318514,0.7196871359627225,0.6875123493380755,0.595307291221472
0.4231042233526559,0.3478106459430098,0.3063800016145091,0.6191784406070121,0.7495873770383573,0.33114019404515,0.5931411047533565,0.6721453599682115,0.7395054065531999,0.7237144283574637,0.6908384377264045,0.6008633216514232
0.432154264758074,0.3530333416896464,0.3089901245862821,0.6125719518576662,0.7514359279065161,0.3352880879162793,0.5916451624967277,0.6730845645341906,0.743588905948842,0.72957230820436,0.6961733517750115,0.6094965381656552
0.4384833786821247,0.3569190273251441,0.3111158948416436,0.607796964939822,0.7523602033405955,0.3384347660254118,0.5808743782489997,0.6655709280063578,0.7425108621083923,0.7310367781660841,0.6987749456629125,0.6135994529446962
0.4381876256950195,0.3590498871897719,0.3139951026558674,0.6061944008372581,0.748663101604278,0.3409378054304036,0.5665881296981937,0.6519163385471228,0.7346705432687597,0.7263438176069229,0.6963050780478166,0.6124027694674758
0.4399029930202295,0.3589454332748391,0.3130802141915346,0.6058019361590791,0.750775731167888,0.340461036019929,0.5600059837690265,0.6448361810497417,0.7276142563130901,0.7210850391080046,0.6922215635908582,0.6077869903410549
0.4614338104814858,0.3599064092922203,0.3044964077173533,0.5991300366300367,0.7732884399551065,0.3371951655581778,0.5653539773364749,0.6518440920420474,0.7276142563130901,0.7212847395573306,0.6926167424092736,0.6093683220788102
0.4779368271619543,0.3594468120665162,0.2964238624438285,0.5949110413396128,0.7923681257014589,0.333357171803857,0.5722353117169677,0.6605497959036232,0.730456371892457,0.7231818938259278,0.6950866100243693,0.6137276690315413
0.4813084112149532,0.3551015292053145,0.2892931141188817,0.5973639455782314,0.8029972931933717,0.3277312927602565,0.5782564792998991,0.6662572698045733,0.7321551076410441,0.7227492095190546,0.6951195415925707,0.6146679203350713
0.4657518040932213,0.3497952703267318,0.2895352904770875,0.6058346415489272,0.7940186175480293,0.3247991608858375,0.5784808706383934,0.6639092583896254,0.7278756002744112,0.7179231153270094,0.6899163538167687,0.6092828446875802
0.4555779013368035,0.3474763934152252,0.2911497995317924,0.6104788069073784,0.786426355053806,0.3242031991227443,0.5769475298253488,0.659502221580031,0.7221913691156775,0.7118655350307871,0.6844826450635579,0.6042824173006239
0.4513782089199101,0.3464109634829113,0.2917148777009391,0.6124738356881214,0.7833234303822538,0.3238456220648883,0.5800890085642695,0.6608387819239245,0.7221913691156775,0.710001664170411,0.6825396825396826,0.6030857338234038
0.4389565834614929,0.3438622879585526,0.2940828243145064,0.6178702250130822,0.773486498976695,0.3234403680659848,0.5931411047533565,0.670303074088791,0.7289863121100258,0.7155932767515393,0.6855693868142001,0.604453372083084
0.4211522536377618,0.3375323807136291,0.2940559158302613,0.627779958137101,0.7636495675711361,0.3198169205463778,0.6006956131493325,0.6766246432828813,0.7309790598150991,0.7151605924446662,0.6831324507673054,0.5991537738268229
0.4055364959186088,0.3296774463106877,0.2909883486263219,0.6382456828885401,0.7586980920314252,0.3139764952680636,0.600359026141591,0.6740598923527075,0.7252621606612003,0.7080379430853719,0.675360600671804,0.586802290794085
0.4039985803856619,0.3264811565137461,0.2875709711271964,0.641156462585034,0.7619990757245659,0.3106391093947412,0.6005834174800853,0.6734096738070295,0.7206233053477509,0.7025461807289066,0.6699927550549958,0.5773570390631678
0.4072518632438188,0.3277554942759255,0.2877862390011571,0.6392595499738357,0.7635835478972733,0.3114496173925481,0.6042110774524103,0.6775277245963227,0.721603345202705,0.7031119986686636,0.6710794968056378,0.578211812975468
0.4031113214243464,0.3266273919946519,0.2881898662648333,0.641287284144427,0.7607447019211724,0.3109966864525972,0.6061932009424437,0.678972654697829,0.7224200450818334,0.7039108004659677,0.6718698544424685,0.5788528934096931
0.398970779604874,0.3251441464026071,0.2881360492963432,0.6436093668236527,0.7585000330098368,0.3101385015137429,0.606155802386028,0.6781418198894629,0.7209826532945673,0.7022466300549176,0.671211223078443,0.578340029062313
0.395480894357033,0.3231804128018718,0.2872480693162554,0.6460949764521194,0.7576417772496203,0.3086128394002241,0.6022663525187928,0.6742043853628581,0.7168991538989252,0.6981527708437344,0.6667325298030692,0.573895204718352
0.393824677629244,0.3218642934737193,0.2862793638834324,0.6475667189952905,0.7579058559450715,0.3074447543445612,0.5984890983208049,0.6694722392804249,0.7135996863872465,0.6944915959394241,0.6618915892774814,0.5688092999401658
0.3964864545131906,0.3230550681039525,0.2866022656943734,0.6459314495028781,0.7589621707268766,0.3082552623423681,0.6019297655110514,0.6731206877867284,0.7167031459279344,0.6972541188217672,0.6640650727787658,0.5722711342849817
0.4047083875547143,0.3254992897133784,0.2860102790409816,0.6417451596023025,0.7643097643097643,0.3093756704569835,0.608025730206814,0.6794422569808185,0.7216360131978701,0.7021800632384755,0.66907067114536,0.5789811094965382
0.3982018218384006,0.3243294058661318,0.2874633371902161,0.6444270015698587,0.7588961510530138,0.3093756704569835,0.6072029619656681,0.6779612036267746,0.7208519813139068,0.7023131968713596,0.6693999868273728,0.5784255064535431
0.3942387318111913,0.3220732013035848,0.2863600893361677,0.6473050758765044,0.7580378952927972,0.3075877851677037,0.6006208160365011,0.6719286204529856,0.7159844500343013,0.6979197869861874,0.6656457880524271,0.5710744508077613
0.3934697740447179,0.3226163616612351,0.2874095202217259,0.647108843537415,0.756321383772364,0.3083744546949868,0.6008452073749954,0.6726149622512012,0.7155597660971547,0.6968547179231153,0.6642626621879735,0.5689375160270109
0.3903939429788241,0.3231177404529121,0.2894276565401071,0.6475667189952905,0.7520961246451442,0.3095425397506496,0.6107558248251619,0.6820431311635301,0.7246088007578975,0.7025794641371276,0.6666337350984654,0.569279425591931
0.3921684609014551,0.3247472215258628,0.2907461722681161,0.6458006279434851,0.7515019475803788,0.3110443633936446,0.6281835521148884,0.6994545388866813,0.7402894384371631,0.7138958229322682,0.6711124283738392,0.5672707068980255
0.3950668401750858,0.3286746887273335,0.2944864515781826,0.6419086865515438,0.7485310622565523,0.3149538725595366,0.6234339354500917,0.6930245999349782,0.7379700107804383,0.7203528041271425,0.6807613778568135,0.5734250790665869
0.3977286170590323,0.3364251692153422,0.3032317089578344,0.6351059654631083,0.7392883079157588,0.3232496603017951,0.5885410823142228,0.6554202940432757,0.7190552415798244,0.7253785987685138,0.7033524336428901,0.6023164373023335
0.4038211285933988,0.3480613353388485,0.315475069289347,0.6243131868131869,0.727668845315904,0.335311926386803,0.5477392572646697,0.6067983961275873,0.693639541341348,0.727475453486437,0.7302245932951327,0.6408240020514574
0.4275996687566545,0.355540235648032,0.3143180044668084,0.6118851386708529,0.742391232587311,0.3390545662590288,0.5239537753842702,0.5787667521583644,0.6687138610303487,0.7200865368613746,0.7477771191464138,0.678134883323361
0.4627351236247486,0.3551850923372608,0.2978500121088179,0.6024332810047096,0.782201095926586,0.3315692865145772,0.51643666554471,0.5745403316114582,0.6401620332560192,0.6908304210351139,0.732628597773826,0.6962988289597403
0.4827871761504791,0.3562923038355478,0.2901810940989694,0.5960230245944532,0.8027992341717831,0.3288040239338244,0.5118740416619919,0.5760575082180399,0.6144196530658914,0.6523880845398569,0.6915300006586313,0.6899735020087187
0.4825505737607949,0.3709158519261302,0.3090977585232624,0.5846415489272632,0.7794282696243481,0.3455147917709599,0.4840121171322787,0.5432575949138461,0.5665610401489661,0.6122150108171076,0.652242639794507,0.682836139841012
0.4875192239441618,0.3998286955795103,0.3440787880418696,0.5606684981684983,0.7392883079157588,0.3775060192138073,0.4263435431392348,0.4748762778600585,0.5145209238509033,0.600798801797304,0.6610024369360469,0.7187366441576203
0.5001774517922631,0.422265396507061,0.3672200844926406,0.539573521716379,0.7179639532580708,0.400581658680779,0.3552488873929467,0.3870606509410108,0.4239979092483095,0.5474787818272591,0.6339985510109992,0.7420719719634157
0.4464687093339643,0.3932689897217348,0.3543040120550009,0.5771520146520148,0.7038357430514293,0.3782926887410904,0.3709562810875501,0.377090633240617,0.3214204044297801,0.4167082709269429,0.5049068036619904,0.6577912642106163
0.355376789305572,0.3450112810228127,0.3335844791862875,0.6400771847200419,0.6784181686142471,0.341605282605068,0.4567859680616328,0.4525159845392479,0.3071444905426154,0.3432517889831918,0.4127972074030165,0.5569279425591932
0.287353602271383,0.3177070276593967,0.3293598471598095,0.6802721088435374,0.6456724103782926,0.3241316837111731,0.5364074946707058,0.5372611349925948,0.3791447518865767,0.3846563488101181,0.4288348811170388,0.513120779553808
0.2406246303087661,0.2970251525027158,0.323978150310793,0.7093799058084773,0.6261966065887634,0.309947793749553,0.6214892105164741,0.625979843225084,0.4644082192675836,0.4493260109835246,0.4618981755911217,0.4718779382853236
0.2436413107772389,0.2820255703183755,0.3032855259263246,0.7202708006279436,0.6532646728725159,0.2922358101504207,0.6949399753169528,0.7051981360401691,0.5287315017477378,0.4972541188217673,0.491701244813278,0.4581160782972903
0.2633976103158642,0.2794351132280437,0.2909614401420768,0.7168694400837259,0.6793424440483263,0.285298815228015,0.7140880362018026,0.7318209731604234,0.5600274411159388,0.5290397736728241,0.5192649673977475,0.4626036413368664
0.2814385425292796,0.2798320381047881,0.2832656136479832,0.7115711669283098,0.6988842675117185,0.282104460177835,0.7110587531321292,0.7369504750207708,0.5857371533109014,0.5571975370277916,0.5449186590265428,0.4754679887169843
0.2971134508458535,0.2774713796273084,0.273094206603342,0.709085557299843,0.7200765828216809,0.2762640348995208,0.6970342944762333,0.7283892641693459,0.6035085426807357,0.5771342985521717,0.5616478956727919,0.4844003761005214
0.3127292085650065,0.2791217514832456,0.2680892285337567,0.7034602302459446,0.7349310094408132,0.2750005959617631,0.680092748419911,0.7182386302062639,0.617163764659763,0.5933100349475786,0.5754791543173287,0.4940593213095137
0.3332544658701053,0.2852636416812902,0.2666899873530124,0.6929618001046572,0.7481349442133756,0.2778850508951346,0.6754927259807773,0.718961095257017,0.6360131978700467,0.6134797803295057,0.5933609958506224,0.5100863321651424
0.3608777948657281,0.2961895211832539,0.268196862470737,0.6767726321297751,0.7616689773552517,0.2847743688764929,0.6714536818878792,0.7226817902683957,0.6585867825291563,0.636811449492428,0.6136468418626095,0.5275664586716814
0.3817579557553532,0.3059664076209576,0.2712913381589215,0.6633634222919939,0.7695253185449263,0.2917352022694224,0.6652081229664536,0.7238377343496009,0.6776648917055961,0.6563155267099351,0.6294869261674241,0.5406872382254894
0.381343901573406,0.3121709701679618,0.2794715173694266,0.6586211407639979,0.7592922690961905,0.2988867434265417,0.654624331500804,0.7178051511758119,0.6904380778151645,0.6691629222832417,0.6395310544688138,0.5466706556115908
0.3857801963799834,0.3195871981281858,0.2869789844738046,0.6515894819466248,0.7525582623621838,0.3064435385825645,0.6336437413515839,0.7001047574323592,0.6988664205677698,0.6802795806290564,0.6491141408153855,0.5546627916915976
0.3984384242280847,0.3289880504721316,0.2933293867556441,0.6407312925170069,0.7518320459496929,0.3146201339722044,0.6116907887355549,0.683307445002348,0.708013459214008,0.69169578964886,0.6606072581176315,0.5681682195059408
0.4078433692180291,0.3361535890365171,0.2983074563409844,0.6325222396650968,0.7509737901894764,0.3209134901904694,0.6046972586858147,0.6783946826572266,0.7164744699617784,0.7020802130138126,0.6710136336692354,0.5807761347123687
0.4052998935289246,0.3367385309601404,0.3002179587223852,0.6327511773940345,0.7472106687792962,0.3220815752461322,0.60264033808295,0.676010547989741,0.7189245695991638,0.7051755699783657,0.6747019693077784,0.5842807077527994
0.3977286170590323,0.333855602907997,0.2999488738799344,0.6371336996336997,0.7433155080213903,0.3203413668978998,0.5947866412356484,0.669652855543113,0.7150370781745125,0.7010151439507405,0.6704208654416124,0.5790665868877682
0.3963090027209275,0.3341898554357816,0.3010252132497376,0.6372645211930927,0.7412028784577803,0.3209850056020406,0.5897004375631101,0.6640898746523137,0.712521642546797,0.6990514228657014,0.6681156556675228,0.5759894008034875
0.4065420560747663,0.3373025821007771,0.3003794096278557,0.6319662480376766,0.7477388261701986,0.3224868292450356,0.5919443509480535,0.6662933930571109,0.71565777008265,0.7022799134631386,0.672034512283475,0.5795794512351483
0.4136401277652904,0.339934820757082,0.3005408605333262,0.6279434850863423,0.7514359279065161,0.3240601682996019,0.5923931336250421,0.6681718021890691,0.7194799255169712,0.7066400399400898,0.6764473424224462,0.5839815368834943
0.4095587365432391,0.3401019470209743,0.3026397223044426,0.628957352171638,0.7466164917145308,0.3250852225321223,0.5922061408429635,0.6680273091789185,0.72042729737676,0.708870028290897,0.6786208259237305,0.5864603812291649
0.4034662250088726,0.3379919779393331,0.3026666307886876,0.6322933019361592,0.7431834686736647,0.3238932990059358,0.5896630390066944,0.6643427374200773,0.717062493874751,0.7062739224496588,0.675360600671804,0.5825711599281991
0.4012185023068733,0.3371563466198713,0.3025859053359525,0.6335688121402407,0.741995114544134,0.3233926911249374,0.5868207487190995,0.6608026586713868,0.7141550423050538,0.7033449825262106,0.6725284858064942,0.5790238481921532
0.4060688512953981,0.3392663157015124,0.3031240750208541,0.630559916274202,0.744107744107744,0.3248229993563613,0.5891020606604586,0.6636202723693241,0.7162784619907877,0.7056415376934597,0.6747019693077784,0.5817163860158988
0.4139358807523956,0.3417941004428846,0.3028011732099131,0.6264390371533229,0.7488611606258664,0.3261102767646428,0.5929915105276937,0.6682079254416068,0.7210153212897324,0.7104010650690631,0.6792135941513535,0.587144200359005
0.4179581213770259,0.3420238990557365,0.3012673896079434,0.6251308215593929,0.7530204000792236,0.325561991942597,0.5922435393993792,0.667449337138316,0.7215706772075398,0.710900316192378,0.6800368833563855,0.5880417129669203
0.4058322489057139,0.3384306843820506,0.3021822780722762,0.6313121402407117,0.7450980392156862,0.3239171374764595,0.5885036837578069,0.6637286421269372,0.7184672176668518,0.7069063072058579,0.6764802739906475,0.5839387981878793
0.3998580385661895,0.3365505139132614,0.3024513629147271,0.6344191522762952,0.7414009374793689,0.3229635986555103,0.5835670743109316,0.6589242495394285,0.7150370781745125,0.7045764686303877,0.6735164328525325,0.5809043507992137
0.4089672305690288,0.3394543327483914,0.3020477356510508,0.6296441653584511,0.7470126097577077,0.3244415838279816,0.584726429559819,0.6604414261460102,0.7169644898892555,0.7063404892661007,0.6749654218533887,0.5851354816650997
0.4171300130131314,0.343799615609593,0.3039313295482065,0.6239534275248562,0.7492572786690433,0.327778969701304,0.5895134447810314,0.6665101325723369,0.7215380092123748,0.710334498252621,0.679279457287756,0.591033421659971
0.4157103986750267,0.3439667418734854,0.3047924010440492,0.624215070643642,0.7474087278008846,0.3282319006412548,0.5884662852013912,0.665643174511433,0.7208193133187417,0.7109668830088199,0.6805637884476059,0.590862466877511
0.4122205134271857,0.3427341856772792,0.3047654925598041,0.6261446886446888,0.7454941572588631,0.3275405849960666,0.5831556901903587,0.6603691796409349,0.7161477900101271,0.7069395906140788,0.677962194559705,0.5878280194888452
0.4082574233999764,0.3408122336425169,0.3041196889379221,0.6287611198325483,0.744107744107744,0.3261341152351665,0.5791914432102921,0.6565401148719431,0.7131423344549346,0.7033782659344316,0.6750642165579924,0.5844516625352595
0.4105051461019756,0.3420656806217096,0.304738584075559,0.6271585557299844,0.7445698818247838,0.3271353309971632,0.5821085306107184,0.6587797565292779,0.7159844500343013,0.7060409385921117,0.6774352894684844,0.5876998034020002
0.4184904767538153,0.3453037519846244,0.3052498452762156,0.6224162742019885,0.7483990229088268,0.3292092779327278,0.5843898425520776,0.6619947260051295,0.7195779295024665,0.7107006157430521,0.6815846670618455,0.5941960851354816
0.4205015970661304,0.3468496699256288,0.3063261846460189,0.6206501831501832,0.7482009638872383,0.3305680707525805,0.5831182916339429,0.6607665354188491,0.7195779295024665,0.710900316192378,0.6826384772442864,0.595435507308317
0.4123388146220277,0.3438622879585526,0.3062185507090386,0.6252289377289378,0.74377764573843,0.3288040239338244,0.5767231384868544,0.6536141314163927,0.7147103982228611,0.7047428856714927,0.6773035631956794,0.5888110094879905
0.4047083875547143,0.3426715133283196,0.3081290530904394,0.6282705389848248,0.7371756783521488,0.3289947316980143,0.5741052395377538,0.6500018061626269,0.7105942308320539,0.7009485771342985,0.6737798853981426,0.5851782203607145
0.4118064592452384,0.345638004512409,0.3087210397438313,0.6239861329147043,0.7404106423714266,0.3309494862809602,0.5745166236583268,0.6509048874760683,0.7095488549867695,0.7005158928274254,0.6740762695119542,0.5873151551414652
0.423222524547498,0.3502339767694493,0.3094475688184485,0.6172488226059655,0.7458902753020399,0.3338816181553792,0.5768727327125174,0.6539392406892317,0.7133056744307602,0.7043102013646196,0.678324441809919,0.5939396529617916
0.4210339524429197,0.3515709868805883,0.3121653257272018,0.61679094714809,0.741334917805506,0.3358602112088488,0.5781816821870677,0.6550229382653614,0.713730358367907,0.7040772175070726,0.6803661990383982,0.5975297033934525
0.4122205134271857,0.3487298403944179,0.3125151360223879,0.6214678178963894,0.7359873242226183,0.3343822260363775,0.5706645723475074,0.6458476321207961,0.7063800594557512,0.6967548676984523,0.675360600671804,0.5916317633985811
0.4080799716077132,0.3469750146235481,0.3121384172429567,0.6239861329147043,0.7341387733544595,0.3332141409807147,0.5631848610643629,0.6376476537947477,0.6986050766064488,0.6911632551173239,0.6702891391688072,0.5882981451406103
0.4162427540518159,0.3509024818250187,0.3134838414552108,0.6186551543694402,0.7370436390044233,0.3360509189730387,0.5632596581771945,0.6382978723404256,0.6975597007611644,0.692394741221501,0.6702232760324047,0.5906915120950509
0.4173074648053945,0.3543494610177989,0.317439388639238,0.6156462585034014,0.7328183798772033,0.3397697203747407,0.5671117094880138,0.6411516092909006,0.6989970925484303,0.694558162755866,0.6730883224659158,0.5966321907855373
0.4123388146220277,0.3544539149327316,0.3198342437370502,0.6169544740973312,0.7270746682511388,0.3408901284893561,0.5634466509592729,0.6372141747642958,0.6945869132011369,0.690497586952904,0.6695317131001779,0.5961620651337721
0.4070744114515557,0.3546419319796105,0.3224712751930684,0.6182626896912612,0.7209348385818973,0.3421535674271139,0.5559295411197128,0.6284001011451071,0.6862892424291922,0.6835746380429356,0.6635710992557465,0.5908197281818959
0.404235182775346,0.3540360992730007,0.322982536393725,0.6195381998953429,0.7186901696705618,0.342058213545019,0.5503571562137701,0.621861792435791,0.6782202476234034,0.6771842236645031,0.6584667061845485,0.5854346525344047
0.4042943333727671,0.3570861535890364,0.3268842666092619,0.6171180010465726,0.7139367531524393,0.3455147917709599,0.5474774673697596,0.6182133439294875,0.6723400084936788,0.673389915127309,0.6565237436606732,0.5859902555773998
0.4115107062581332,0.3632907161360407,0.3315932513521513,0.6102825745682889,0.7121542219581435,0.3511406708145605,0.5477766558210854,0.6177076183939603,0.6706739407402568,0.674488267598602,0.6589606797075677,0.5932558338319516
0.4091446823612919,0.3645441631152336,0.3342840997766596,0.6099555206698064,0.7075988644616095,0.353047748456459,0.5478140543775011,0.6170212765957447,0.6691712129626606,0.6749209519054751,0.6595534479351907,0.5948371655697069
0.4015734058913995,0.3622043954207403,0.3347146355245809,0.6138801674515961,0.7027794282696244,0.3519035018713199,0.5418302853509855,0.6093270238052235,0.6613635621181928,0.6672324846064236,0.6535599025225582,0.5892811351397556
0.395480894357033,0.3627684465613771,0.3382127384764416,0.6150902668759812,0.6951211461015382,0.3537867410426947,0.5326676390291335,0.5995014991149803,0.6510404756460096,0.6574804459976701,0.6459856418362643,0.5817163860158988
0.3959540991364013,0.3651917773878165,0.3411457632591556,0.613095238095238,0.6917541427345348,0.3564566497413526,0.5301993343056959,0.5944442437597081,0.6444742086178172,0.6514561491096688,0.6410788381742739,0.5808188734079837
0.4010410505146102,0.3679702515250271,0.3423835535344294,0.609497645211931,0.6930745362117912,0.3585782736179647,0.5270952541231909,0.5907235487483293,0.6383326255267715,0.6471625894491595,0.6372587762629256,0.5836396273185742
0.3979652194487165,0.3696206233809643,0.3459085649705352,0.6090397697540555,0.6870667458902753,0.3611051514934802,0.523991173940686,0.5852328143626052,0.6299696187644965,0.6402729239474122,0.6328459461239545,0.5844089238396445
0.388382822666509,0.3692028077212334,0.3497295697333369,0.6120486656200943,0.677031755463128,0.3625354597249041,0.5143797449418452,0.5738539898132429,0.6158897128483226,0.6286902978865035,0.6234933807547915,0.5798786221044534
0.3802791908198273,0.3704771454834127,0.3550574496138632,0.6132587650444794,0.6660064699280385,0.3656344608929891,0.5045439246045104,0.5603077701116209,0.6015157949756624,0.6160758861707438,0.6146347889086479,0.5729122147192068
0.3731811191293032,0.3716470293306593,0.3597933428409978,0.6143380429094716,0.6561695385224796,0.3683997234737419,0.5018886270989941,0.5548170357258968,0.5919114043971122,0.6075553336661673,0.6094974642692484,0.5711599281989914
0.3841239796521945,0.3756580596640761,0.3599817022307133,0.6081567242281528,0.6621113091701326,0.3707597320555913,0.498784546916489,0.5514936964924322,0.5846264414752868,0.602196704942586,0.6062701705855233,0.5731259081972818
0.3808706967940376,0.3779769365755828,0.364448510615397,0.6072409733124019,0.6547831253713606,0.37407327945839,0.4939227345824451,0.5437271971968356,0.5745973669595897,0.5934098851722416,0.5996509253770664,0.5722711342849817
0.3754288418313025,0.377600902481825,0.3664397384495331,0.6090397697540555,0.6493034924407474,0.3747407566330544,0.4850218781555033,0.5328179749304628,0.5588513932899938,0.5795307039440838,0.5887505763024435,0.5650055560304299
0.3633029693599905,0.3765145817665245,0.3705567365390308,0.6132260596546312,0.6374859708193041,0.3759565186297647,0.4769437899697072,0.5211501643607991,0.544314135441508,0.5659843567981361,0.578838174273859,0.5581246260364134
0.3621199574115699,0.3786036600651792,0.3737857546484406,0.6119505494505495,0.6328645936489072,0.3785549119168515,0.4740641011256966,0.5153704439547737,0.5369311685341871,0.5591945415210517,0.5749193176579069,0.5583810582101034
0.3637170235419378,0.3813821342023899,0.3766380539784194,0.6093014128728415,0.6302898263682577,0.3814155283796991,0.4747372751411796,0.5160206625004515,0.532847669138545,0.5560991845564985,0.5735691233616546,0.5628686212496795
0.3637170235419378,0.380316704270076,0.3752657212819202,0.6101517530088959,0.6319403182148279,0.3801997663829889,0.472381166086989,0.5122638442365351,0.5254973702263892,0.5491429522383091,0.5681024830402425,0.5603897769040089
0.3512953980835206,0.3757625135790089,0.3750504534079595,0.6171507064364208,0.6252723311546841,0.3775060192138073,0.4657616216014062,0.504750207708702,0.5142922478847474,0.5393243468131136,0.5592768227623,0.5521839473459271
0.3491068259789424,0.3740912509400852,0.373893388585421,0.6190803244374674,0.6254703901762725,0.3760280340413359,0.4637047009985415,0.50200484051584,0.5083466727646925,0.5333333333333333,0.5518342883488112,0.5462005299598256
0.350230687329942,0.3737987799782735,0.3730054086053333,0.6189822082679226,0.6271869016967055,0.3754797492192901,0.4675941508657766,0.50540042625438,0.5091307046486557,0.5338325844566484,0.5504840940525588,0.5456021882212155
0.3556725422926772,0.372900476309852,0.3693996717164922,0.6181645735217164,0.6346471248432033,0.3733819638132017,0.4745502823591009,0.5128056930246,0.5148802717977198,0.5376268929938426,0.5526905091220443,0.5467988716984358
0.3540163255648882,0.3704980362663992,0.367031725102925,0.6205193615907902,0.6366277150590876,0.3709504398197812,0.4800852687086279,0.5188743994509266,0.5189637711933619,0.5393909136295556,0.5530198248040572,0.5456876656124455
0.3553176387081509,0.3671137294225787,0.3620805640018298,0.6228087388801675,0.6434277414669571,0.3668263844191757,0.4822543849807397,0.5205360690676589,0.5210545228839306,0.5375936095856215,0.55051702562076,0.5401743738781093
0.3547261327339406,0.3628729004763098,0.3568603180582838,0.6262755102040817,0.6495015514623357,0.3621063672554769,0.4852836680504133,0.525701694180544,0.5259547221587011,0.5399234481610916,0.5493314891655141,0.5365843234464485
0.3601088370992548,0.3596975014623547,0.3503753733552189,0.6272893772893774,0.6604608173235623,0.3574101885623019,0.4956056696211526,0.5391034208720153,0.5375845284374898,0.5490098186054251,0.5550286504643351,0.5392768612701941
0.3684490713356205,0.3587991977939333,0.3453973037698787,0.6256868131868133,0.6712220241632005,0.3546926029225964,0.5080593889075882,0.5550337752411227,0.5536571820587372,0.5619237809951738,0.564743463083712,0.5449183690913754
0.3746598840648291,0.3569190273251441,0.3401501493420876,0.6254251700680272,0.6811249752426223,0.3513075401082267,0.518867571711732,0.5669905718310877,0.5684231158733789,0.5726077550341154,0.5721859974972009,0.5463287460466707
0.3756062936235656,0.3522394919361578,0.3337190216075129,0.6288265306122449,0.6895094738231992,0.345777014946721,0.52316840569954,0.5737456200556299,0.5788115383358924,0.5797304043934098,0.5759072647039452,0.543037866484315
0.3783272211049331,0.3484791509985794,0.3276107956838792,0.6310504971219257,0.6985541691424044,0.3409139669598798,0.5286285949362355,0.5811147635733122,0.589003952827415,0.5867199201198202,0.5791674899558718,0.5401743738781093
0.3808706967940376,0.3456171137294225,0.3227941770040093,0.6325876504447934,0.7058823529411764,0.3371474886171303,0.5417180896817384,0.5965393924068924,0.6050439384534971,0.600865368613746,0.5896067970756768,0.5470125651765109
0.3905713947710872,0.3456171137294225,0.3183273686193257,0.6298731030873889,0.7167755991285402,0.3351927340341843,0.5523766782602192,0.6121085142506232,0.6234686877266342,0.618106174072225,0.6032733978792071,0.5570561586460382
0.4016325564888205,0.3451992980696916,0.3127842208648387,0.6271585557299844,0.7297154552056513,0.3324989868650027,0.5613149332435768,0.6238124480728244,0.6379406095847898,0.6303877517057745,0.6124613054073634,0.5615437216856142
0.4038211285933988,0.3421074621876828,0.3078061512794984,0.6289900575614861,0.7370436390044233,0.3285179622875396,0.5628482740566215,0.6276053895892787,0.6451929045114502,0.6347145947745049,0.6142066785220313,0.5591076160355586
0.4021649118656099,0.3394125511824182,0.3050883943707451,0.6315410779696494,0.7394863669373473,0.3257765381773105,0.5640076293055089,0.6304952497922913,0.651628499558982,0.6391745714761191,0.61572153065929,0.556329600820583
0.409499585945818,0.3410629230383555,0.3038506040954713,0.6282378335949765,0.7450980392156862,0.3261579537056903,0.570851565129586,0.6408626232705993,0.6649897095815229,0.6519221168247629,0.625568069551472,0.5604325155996239
0.4193777357151307,0.343799615609593,0.3029088071468934,0.6233320251177394,0.7517660262758301,0.3273022002908293,0.5794906316616178,0.6506881479608425,0.6781549116330731,0.6649359294391745,0.6355792662846605,0.5670570134199505
0.4190819827280256,0.3433817999498621,0.3025051798832172,0.6237571951857666,0.7520961246451442,0.3268969462919259,0.586072777590785,0.6580934147310624,0.6878573061971187,0.6742552837410549,0.6430876638345518,0.5706898025472263
0.4162427540518159,0.3390991894376201,0.2983074563409844,0.627910779696494,0.755661187033736,0.3226060215976543,0.584576835334156,0.6586352635191273,0.6908954297474764,0.6761191546014311,0.6442732002897978,0.5689375160270109
0.4129303205962381,0.3357148825937996,0.2954282485267605,0.6314429618001047,0.757377698554169,0.3193878280769506,0.5814727551516512,0.657298703175234,0.6929208454477149,0.6772507904809452,0.6438780214713824,0.5684246516796307
0.419850940494499,0.3366131862622211,0.2934639291768695,0.6288592360020933,0.7635835478972733,0.3190302510190946,0.5855491978009649,0.6624643282881191,0.6997157884420634,0.6830421035113995,0.6481591253375486,0.5727839986323618
0.4255293978469183,0.339057407871647,0.2940020988617711,0.6253597592883308,0.7661583151779229,0.3206512670147083,0.5931785033097723,0.6700140880684897,0.7082421351801641,0.691729073057081,0.6551076862280182,0.5776989486280879
0.4273039157695493,0.3395796774463107,0.2938944649247908,0.6244440083725797,0.7672146299597279,0.3209134901904694,0.5962451849358614,0.6752880829389878,0.7145797262422006,0.6997170910301215,0.661134163208852,0.5816736473202838
0.4275996687566545,0.3387649369098354,0.2926835831337621,0.6250327053898483,0.7688651218062983,0.3199122744284727,0.5941508657765812,0.674421124878084,0.7147430662180263,0.7001164919287733,0.6613646841862609,0.5788528934096931
0.4241689341062344,0.3384933567310103,0.2938944649247908,0.6261773940345369,0.7654981184392948,0.3202936899568523,0.5923931336250421,0.6726510855037388,0.7147430662180263,0.6998169412547844,0.6597181057761972,0.5761603555859476
0.4312078551993376,0.3405615442466783,0.2933293867556441,0.622612506541078,0.7701194956096916,0.3212233903072779,0.5941508657765812,0.6746739876458476,0.7188592336088334,0.7034781161590946,0.6624514259369032,0.578639199931618
0.4370046137465988,0.3409584691234227,0.2912305249845276,0.6206828885400315,0.775929226909619,0.3205082361915659,0.5982647069823105,0.6797312430011199,0.7246088007578975,0.7080046596771509,0.6682144503721267,0.5847080947089495
0.4344019874600733,0.339976602323055,0.2911767080160374,0.6221873364730508,0.7745428137585,0.3199361128989964,0.6012939900519841,0.682151500921143,0.7273855803469341,0.7102013646197369,0.6709477705328327,0.5877852807932302
0.4297290902638117,0.3380755410712793,0.2908268977208514,0.6249672946101518,0.7723641645210272,0.3186965124317624,0.5952728224690528,0.6762634107575046,0.7248701447192186,0.7073389915127308,0.6683132450767305,0.5843661851440295
0.426830710990181,0.3369683295729923,0.2907192637838711,0.6266352694924123,0.7709117316960453,0.3180051967865742,0.5929167134148622,0.6736625365747931,0.7214073372317141,0.7039773672824097,0.6649871566884016,0.5787246773228482
0.4299065420560748,0.3377621793264811,0.2903425450044399,0.6251635269492413,0.7730243612596552,0.3183150969033826,0.5955720109203786,0.6766607665354188,0.7243474567965764,0.7071725744716258,0.6676216821445037,0.5818018634071288
0.4367680113569147,0.3406868889445976,0.2909883486263219,0.6209772370486657,0.7760612662573446,0.3202698514863286,0.5983021055387263,0.6804175847993353,0.7293456600568424,0.7123980695623231,0.6725284858064942,0.5875715873151551
0.4441618360345439,0.3427968580262388,0.2903425450044399,0.6172815279958138,0.7810127417970555,0.3211757133662304,0.6002094319159281,0.6823321171838312,0.7313057397667505,0.7138292561158263,0.6737140222617402,0.5884263612274553
0.4401395954099136,0.3414598479150998,0.2904501789414203,0.6194400837257981,0.7786360335379943,0.3204605592505185,0.5977411271924904,0.6796228732435069,0.7279409362647414,0.711199866866367,0.6708489758282289,0.5853919138387897
0.430320596238022,0.3379293055903735,0.290369453488685,0.6249345892203035,0.7732884399551065,0.3184104507854776,0.5934402932046823,0.6738070295849439,0.7240207768449252,0.70863704443335,0.667061845485082,0.5822292503632789
0.4300839938483379,0.3386395922119161,0.2913919758899981,0.6244440083725797,0.7719020268039875,0.3192686357243319,0.5960207935973671,0.6769858758082579,0.7255888406128517,0.710234648027958,0.6683791082131332,0.5833404564492692
0.4359399029930202,0.3417314280939249,0.2926835831337621,0.6203885400313972,0.7735525186505579,0.3216048058356576,0.6011443958263212,0.6823682404363689,0.7308157198392735,0.7152937260775503,0.673351775011526,0.5884690999230704
0.4383059268898616,0.3435280354307679,0.293948281893281,0.6183281004709577,0.7733544596289693,0.3232019833607475,0.601705374172557,0.6841744030632517,0.7331678154911634,0.7180229655516726,0.6762826845814397,0.5927002307889564
0.4345794392523365,0.3410420322553689,0.2924414067755563,0.6213042909471481,0.7730903809335181,0.3211041979546593,0.596058192153783,0.6780695733843876,0.7283982881970534,0.7144949242802462,0.6720674438516763,0.5869732455765451
0.4348751922394416,0.3403526364168129,0.2914188843742432,0.6217621664050236,0.7745428137585,0.3202460130158049,0.5919069523916377,0.6737347830798686,0.724706804743393,0.711199866866367,0.6685437660541395,0.5833831951448841
0.4352300958239678,0.3417941004428846,0.2931141188816834,0.6205193615907902,0.7726282432164785,0.3218431905408949,0.5940760686637496,0.6763717805151176,0.7263728724968149,0.712364786154102,0.6705196601462162,0.5850927429694847
0.4426830710990181,0.3448232639759338,0.29362538008234,0.6161041339612768,0.7761272859312074,0.3237979451238408,0.5980403156438162,0.6793338872232055,0.7307503838489432,0.7169578964886003,0.6755252585128103,0.590905205573126
0.4422098663196498,0.343569816996741,0.2921992304173506,0.6172161172161172,0.7776457384300521,0.3224391523039882,0.5993866636747822,0.6797673662536575,0.7308157198392735,0.7169911798968214,0.6759204373312258,0.5919309342678862
0.4394889388382823,0.3413553940001671,0.2906116298468907,0.619701726844584,0.7781078761470918,0.3204605592505185,0.597404540184749,0.6770581223133331,0.7274509163372643,0.7135297054418371,0.672034512283475,0.5871014616633901
0.4331006743168106,0.3387858276928219,0.2901810940989694,0.6234628466771324,0.7750049514755396,0.318815704784381,0.592954111971278,0.6723982227359752,0.7234654209271177,0.709535696455317,0.6679180662583153,0.5822292503632789
0.433810481485863,0.339746803710203,0.2911228910475473,0.6225143903715333,0.7742787350630487,0.319793082075854,0.5941508657765812,0.6744933713831593,0.7251641566757049,0.7116991179896821,0.669301192122769,0.5829985468843492
0.4447533420087542,0.3428386395922119,0.2901272771304792,0.6170852956567243,0.7816069188618207,0.3211041979546593,0.597404540184749,0.6786836686775277,0.7287576361438699,0.7157264103844233,0.6739445432391491,0.5878707581844602
0.4454631491778067,0.3428804211581849,0.2898581922880284,0.6168563579277866,0.7823331352743117,0.3210088440725643,0.5994240622311979,0.6804175847993353,0.729737675998824,0.7171243135297054,0.6759863004676283,0.5911616377468161
0.4348751922394416,0.3403526364168129,0.2914188843742432,0.6217621664050236,0.7745428137585,0.3202460130158049,0.5969183589513445,0.6775638478488603,0.726144196530659,0.7143285072391413,0.6722979648290852,0.5882981451406103
0.4310895540044955,0.338409793599064,0.2906654468153809,0.6243131868131869,0.7733544596289693,0.318815704784381,0.5925053292942892,0.6723620994834375,0.7214400052268792,0.710034947578632,0.6682473819403281,0.5822292503632789
0.431976812965811,0.3385560290799699,0.2904232704571752,0.6239534275248562,0.7741466957153231,0.3187918663138573,0.5929915105276937,0.6723259762308998,0.7214400052268792,0.7115327009485771,0.6699598234867945,0.5829985468843492
0.4455222997752277,0.3426715133283196,0.2895352904770875,0.6169871794871795,0.7827292533174884,0.3207466208968033,0.5983769026515577,0.6773832315861721,0.7267648884387965,0.7167249126310534,0.6747019693077784,0.5905632960082059
0.4475334200875429,0.3418985543578173,0.2876516965799316,0.6170525902668761,0.7862282960322176,0.3194593434885218,0.5979281199745691,0.6779612036267746,0.7272875763614388,0.7157929772008653,0.6737798853981426,0.5917172407898111
0.4389565834614929,0.3401855101529205,0.2893200226031268,0.620748299319728,0.7793622499504852,0.3192447972538082,0.5941882643329968,0.6742405086153958,0.7234980889222828,0.7108004659677151,0.6693670552591714,0.58658859731601
0.4306754998225482,0.3375532714966157,0.2897505583510481,0.6251308215593929,0.7742127153891859,0.3179098429044792,0.5899248289016045,0.6697612253007261,0.7191859135604848,0.7067398901647528,0.6654152670750182,0.5815454312334388
0.4324500177451792,0.3390156263056739,0.2907999892366063,0.6234955520669807,0.7738826170198718,0.3192209587832845,0.5920939451737163,0.6718924972004479,0.7211786612655582,0.709236145781328,0.6680168609629191,0.5830840242755791
0.4443392878268071,0.341961226706777,0.2891585716976563,0.6178702250130822,0.7825311942959001,0.3201744976042337,0.5976289315232433,0.6767330130404942,0.7248374767240534,0.7136295556665002,0.6730553908977146,0.5885545773143004
0.4438660830474388,0.3420656806217096,0.2895083819928423,0.6179356357927787,0.781870997557272,0.3203890438389473,0.5980777142002318,0.6775638478488603,0.7246741367482278,0.7137294058911632,0.6733188434433247,0.5874433712283101
0.442564769904176,0.3403735271997994,0.2879476899066276,0.6196363160648876,0.7830593516868026,0.3187203509022861,0.5912337783761548,0.6714951414225337,0.7197086014831271,0.708936595107339,0.6687742870315484,0.582357466450124
0.4339879332781261,0.3380546502882928,0.2888625783709604,0.6237899005756149,0.7771175810391496,0.3178144890223843,0.5896256404502788,0.6688581439872847,0.7168664859037601,0.7061075054085537,0.6653494039386155,0.5785537225403882
0.4317993611735479,0.3385769198629564,0.2905309043941555,0.6240188383045526,0.7738826170198718,0.3188395432549048,0.5917199596095591,0.6694361160278872,0.7178791937538794,0.7063072058578798,0.6653823355068168,0.5794939738439183
0.4399029930202295,0.3404570903317456,0.2892662056346366,0.6202904238618525,0.7799564270152505,0.3193639896064268,0.5962077863794458,0.6747101108983853,0.7222240371108426,0.710667332334831,0.6694658499637752,0.58667407470724
0.4406719507867029,0.3398094760591627,0.2881091408120981,0.6205847723704866,0.7818049778834091,0.3184819661970488,0.5975167358539961,0.6762995340100423,0.7231387409754664,0.7126976202363122,0.6704867285780148,0.5888537481836055
0.4357033006033361,0.3385351382969833,0.2887011274654899,0.6229395604395606,0.7783059351686802,0.3180290352570979,0.5942256628894125,0.6735180435646426,0.7197412694782921,0.7107338991512729,0.668477902917737,0.5850500042738696
0.4386016798769667,0.3394543327483914,0.2885665850442644,0.6214351125065412,0.7800884663629761,0.3184819661970488,0.5891394592168743,0.6689303904923599,0.7167031459279344,0.7083374937593608,0.6666995982348679,0.5815454312334388
0.435584999408494,0.3395378958803376,0.2900196431934989,0.6221873364730508,0.77665544332211,0.319173281842237,0.5898126332323572,0.6685691579669834,0.7165398059521088,0.7086037610251289,0.667061845485082,0.5817163860158988
0.4418549627351236,0.3418567727918442,0.2901810940989694,0.6186551543694402,0.7799564270152505,0.3205797516031371,0.5957216051460413,0.6750713434237618,0.7215706772075398,0.712597770011649,0.6709477705328327,0.5849217881870246
0.4451673961907015,0.3412718308682209,0.2879207814223825,0.6181972789115647,0.7845117845117845,0.3192209587832845,0.5974793372975804,0.6768413827981071,0.7233020809512921,0.7134631386253952,0.6719686491470723,0.5868450294897
0.4429196734887022,0.3388276092587949,0.285795011167021,0.6207155939298797,0.7858981976629035,0.3169086271424825,0.5932906989790194,0.6721453599682115,0.7192512495508151,0.7089698785155599,0.667654613712705,0.5834259338404992
0.4343428368626523,0.3357566641597727,0.2857411941985308,0.625523286237572,0.781144781144781,0.3151207418532027,0.5883166909757285,0.6667991185926381,0.7147757342131914,0.7043767681810618,0.6636698939603504,0.5793657577570733
0.4349934934342837,0.3372816913177905,0.2874095202217259,0.6241169544740974,0.7794942892982109,0.3167417578488164,0.5907101985863346,0.6697251020481885,0.7163437979811179,0.7065734731236477,0.6666337350984654,0.5810325668860586
0.4439252336448598,0.3411047046043285,0.2882975002018136,0.6186551543694402,0.7833894500561167,0.3193163126653794,0.5962451849358614,0.6758299317270527,0.7216686811930352,0.7120985188883341,0.671935717578871,0.586545858620395
0.4445167396190702,0.3422119161026155,0.2894276565401071,0.6176412872841445,0.7823331352743117,0.3204367207799948,0.5971427502898389,0.6768775060506449,0.7225833850576591,0.7142286570144782,0.6735164328525325,0.5877852807932302
0.4393706376434402,0.340164619369934,0.2891316632134112,0.6206501831501832,0.7798243876675248,0.3191256049011896,0.5940012715509182,0.6721453599682115,0.7191859135604848,0.7106340489266101,0.66907067114536,0.5850072655782546
0.4310304034070744,0.3378666332414138,0.2899658262250087,0.6247710622710624,0.7741466957153231,0.318195904550764,0.5898874303451888,0.6672687208756276,0.7149064061938519,0.7055084040605758,0.663373509846539,0.5799213608000685
0.4381876256950195,0.3378666332414138,0.2867098996313538,0.6227760334903192,0.7821350762527233,0.3167655963193402,0.5899248289016045,0.6680634324314562,0.7151024141648427,0.7048427358961558,0.6626160837779095,0.5803060090606035
0.4465870105288064,0.3402272917188936,0.2859026451040013,0.6186224489795918,0.787812768204925,0.3177429736108131,0.5953476195818843,0.6739153993425567,0.7202639574009344,0.7096022632717589,0.666831324507673,0.587229677750235
0.4433337276706495,0.3403317456338263,0.2875440626429513,0.6194400837257981,0.783983627120882,0.3185296431380963,0.5977785257489062,0.6786114221724524,0.7236287609029434,0.7126310534198701,0.6689389448725549,0.590905205573126
0.4374778185259671,0.3380755410712793,0.2873018862847455,0.6228087388801675,0.7810127417970555,0.3171470118477199,0.593627285986761,0.6743127551204711,0.7193819215314756,0.7087036112497919,0.6663702825528551,0.5854773912300196
0.4403170472021768,0.3372190189688309,0.2849070311869333,0.6227106227106228,0.7855020796197265,0.3155975112636773,0.5881670967500655,0.6683162951992198,0.7139590343340629,0.7033449825262106,0.6613646841862609,0.5768869134114027
0.4417366615402815,0.3393916603994317,0.2870328014422947,0.6206174777603349,0.7837195484254307,0.3177668120813369,0.5884288866449756,0.6694361160278872,0.7154944301068245,0.7051090031619237,0.6625172890733056,0.5794939738439183
0.4488347332308057,0.3417105373109384,0.2868175335683341,0.6168236525379384,0.7879448075526506,0.3189825740780471,0.5938516773252553,0.6739515225950945,0.7200679494299435,0.7095024130470959,0.6668971876440757,0.5847080947089495
0.4507275523482787,0.3423372608005348,0.2867637165998439,0.6158424908424909,0.7890671420083184,0.3193401511359031,0.5963947791615244,0.6765162735252683,0.7213420012413838,0.7111665834581461,0.6688072185997497,0.5857338234037097
0.4451082455932805,0.339746803710203,0.2859833705567365,0.6194073783359498,0.7868884927708456,0.3175045889055758,0.5923183365122107,0.6719286204529856,0.7178465257587142,0.7071060076551838,0.6649871566884016,0.5811607829729036
0.4408494025789661,0.3375532714966157,0.2850684820924037,0.6223181580324437,0.7856341189674522,0.3158597344394384,0.5890272635476271,0.6678105696636926,0.713991702329228,0.7039108004659677,0.6614634788908648,0.5769723908026327
0.4399029930202295,0.3385351382969833,0.2867637165998439,0.6217948717948718,0.7829933320129397,0.3171708503182436,0.5895882418938629,0.6690026369974353,0.7157884420633106,0.7054418372441337,0.6633405782783376,0.5791948029746132
0.4536850822193304,0.3439249603075123,0.2874633371902161,0.6137493458922031,0.7898593780946721,0.3205320746620897,0.5944126556714912,0.6754325759491384,0.721603345202705,0.7124313529705442,0.669432918395574,0.586802290794085
0.4565834614929611,0.3491685468371354,0.2928988510077228,0.6088762428048143,0.7848418828810985,0.3259434074709766,0.5946744455664011,0.6760466712422787,0.7261115285354938,0.7190214677983026,0.6758216426266218,0.5930848790494915
0.445877203359754,0.3493147823180412,0.2979307375615532,0.6116889063317635,0.7726942628903413,0.3282557391117786,0.5888402707655486,0.6688581439872847,0.7238574368690994,0.7176901314694624,0.6751300796943951,0.590990682964356
0.4455814503726488,0.3517590039274672,0.3012135726394532,0.6098901098901099,0.7684690037631213,0.3311163555746264,0.5842776468828303,0.6635480258642489,0.7215706772075398,0.7147944749542352,0.6731541856023184,0.5869732455765451
0.4545131905832249,0.3559789420907495,0.3026128138201975,0.6041012558869703,0.7717039677823991,0.3341200028606165,0.5847638281162347,0.665643174511433,0.7250988206853746,0.7166583458146113,0.6752288743989989,0.5891529190529106
0.4631491778066958,0.3566683379293055,0.2995990635847483,0.601157770800628,0.7802865253845646,0.333190302510191,0.5882044953064811,0.6707004298667052,0.7312730717715855,0.7217507072724246,0.6797075676743726,0.595649200786392
0.46853188217201,0.3580262388234311,0.298872534510131,0.5986394557823129,0.7841816861424704,0.3336432334501418,0.5865589588241894,0.6709532926344688,0.7328738035346771,0.7253453153602928,0.6831653823355068,0.5985126933925976
0.4629717260144327,0.3596557198963817,0.3035007938002852,0.598901098901099,0.7754010695187165,0.3366230422656082,0.57545158756872,0.6621753422678178,0.729476332037503,0.7244466633383259,0.6831983139037081,0.5980853064364475
0.4659292558854844,0.3643143645023815,0.3081828700589296,0.5944204604918891,0.7713078497392222,0.341343059429307,0.5630352668387001,0.6510132572336813,0.7247721407337232,0.7223830920286237,0.6831653823355068,0.5984699546969827
0.4743286407192712,0.3678657976100944,0.3089093991335468,0.5893184196755625,0.7750709711494025,0.3437030680111564,0.553349040727028,0.6424159231297186,0.719937277449283,0.7189549009818604,0.6836264242903247,0.6016326181724934
0.4818999171891637,0.3702682376535472,0.3085595888383607,0.5853610675039247,0.7796923483197992,0.3449188300078667,0.5557425483376343,0.647039699454539,0.722550717062494,0.7219504077217507,0.6873806230652705,0.6103085733823405
0.4972790725186325,0.3685343026656639,0.2993299787422975,0.5824502878074308,0.7996302898263682,0.339841235786312,0.5594450054227907,0.6519163385471228,0.7206233053477509,0.7195540023298385,0.6853717974049924,0.6112060859902556
0.498343783272211,0.3637712041447313,0.2927104916180072,0.5858843537414966,0.8083448867762593,0.3341915182721877,0.5599685852126108,0.651988585052198,0.7157884420633106,0.7140955233815943,0.6800368833563855,0.6055645781690744
0.4937300366733704,0.3585693991810812,0.2881091408120981,0.5912153322867609,0.8114478114478114,0.3291854394622041,0.5612775346871611,0.6534696384062422,0.7139590343340629,0.7114994175403561,0.6763814792860436,0.6012052312163433
0.4902401514255294,0.3566892287122921,0.2872749778005005,0.5936682365253795,0.8104575163398692,0.3277312927602565,0.5659897527955422,0.6568291008922444,0.7143837182712097,0.7108337493759361,0.6759863004676283,0.6016753568681085
0.485981308411215,0.3567310102782652,0.2892662056346366,0.5948129251700681,0.805638080147884,0.328660993110682,0.5704401810090131,0.6581656612361377,0.7162131260004574,0.7123980695623231,0.6775670157412895,0.6048807590392341
0.4777002247722701,0.3547254951115568,0.2904501789414203,0.5986721611721613,0.7995642701525054,0.328041192877065,0.5747036164404055,0.6610193981866127,0.7165724739472739,0.7122316525212181,0.6772377000592769,0.6050089751260792
0.4594818407665917,0.3508398094760591,0.2937330140193203,0.6067503924646782,0.7853700402720011,0.3272783618203056,0.580687385466921,0.6630423003287216,0.7169318218940904,0.711100016641704,0.6741092010801555,0.5982135225232926
0.442505619306755,0.343569816996741,0.2920915964803703,0.6171507064364208,0.7779758367993661,0.3223914753629407,0.583529675754516,0.6630061770761839,0.714677730227696,0.7068397403894158,0.6687742870315484,0.5875715873151551
0.4356441500059151,0.3375532714966157,0.287436428705971,0.6237571951857666,0.7798243876675248,0.3168847886719588,0.5890646621040428,0.6680273091789185,0.7148737381986867,0.7047428856714927,0.6649212935519989,0.5797931447132234
0.4349343428368626,0.3351299406701763,0.2846917633129726,0.6258176347462062,0.7827952729913513,0.3142863953848721,0.597404540184749,0.6757576852219774,0.7180425337297051,0.7069728740222998,0.6659421721662385,0.5799640994956834
0.4377735715130723,0.3332288794184005,0.280924575518661,0.6265371533228676,0.7890011223344556,0.311544971274643,0.5980777142002318,0.6766607665354188,0.7162131260004574,0.7041770677317356,0.662780741618916,0.5779126421061629
0.4328049213297054,0.3304712960641764,0.2796329682748971,0.6300693354264784,0.787812768204925,0.3093995089275072,0.5941134672201653,0.6727594552613518,0.7102675508804025,0.6978199367615243,0.6563261542514655,0.5718010086332166
0.4296107890689696,0.32869557951032,0.2787988052632996,0.6323587127158556,0.7870205321185713,0.3080168776371308,0.5905980029170874,0.6682801719466821,0.7044526477410081,0.692527874854385,0.6519791872488968,0.5661595008120353
0.4316219093812848,0.3302206066683379,0.2798213276646127,0.6305926216640503,0.7869545124447085,0.3093518319864597,0.5904484086914246,0.6690026369974353,0.7043219757603477,0.693193543018805,0.6530329974313377,0.5679545260278656
0.4377735715130723,0.3329572992395755,0.280574765223475,0.6267333856619571,0.7894632600514953,0.3112350711578345,0.5944500542279068,0.6733013040494166,0.710136878899742,0.6993842569479114,0.6580056642297306,0.5751346268911873
0.4409085531763871,0.3338138213420239,0.280251863412534,0.6251962323390895,0.7915758896151052,0.3115688097451667,0.5995362579004451,0.6773471083336344,0.7139263663388978,0.7025461807289066,0.6610024369360469,0.5776562099324729
0.4336921802910209,0.3316620706944096,0.2807631246131906,0.6288919413919414,0.7868884927708456,0.3105914324536938,0.597404540184749,0.6761911642524293,0.7108229067982098,0.6986853053752704,0.6574128960021076,0.5714590990682965
0.4288418313024962,0.3301370435363916,0.2810053009713963,0.6314102564102564,0.7839176074470191,0.3098286013969343,0.5910093870376604,0.6692916230177365,0.7064780634412466,0.6934930936927941,0.6537574919317658,0.5664159329857253
0.4350526440317047,0.3314949444305172,0.2799020531173479,0.6286630036630038,0.7887370436390043,0.3100908245726954,0.5904110101350089,0.6683162951992198,0.707066087354219,0.6942253286736562,0.6543173285911875,0.5676553551585606
0.4382467762924406,0.3331453162864544,0.28060167370772,0.6264717425431712,0.7896613190730837,0.3113542635104532,0.5977785257489062,0.6761911642524293,0.7148737381986867,0.7012148444000665,0.6586642955937562,0.5729976921104367
0.4327457707322844,0.3321425587031001,0.2818125554987488,0.6287938252223967,0.7851059615765498,0.3113065865694057,0.6101574479225103,0.688292453852545,0.7265035444774754,0.70930271259777,0.6606072581176315,0.5699632447217712
0.430261445640601,0.3318918693072616,0.2826198100261012,0.6296768707482994,0.7827292533174884,0.3115211328041193,0.6166273981824303,0.6961311996532168,0.7323511156120349,0.7133965718089532,0.6596193110715932,0.5620993247286094
0.4309121022122323,0.3382844489011448,0.2905578128784006,0.6244767137624281,0.7733544596289693,0.3186965124317624,0.6005460189236695,0.6785391756673772,0.7234654209271177,0.7201198202695955,0.6746690377395772,0.573895204718352
0.4387791316692299,0.3512994067017631,0.303742970158491,0.6121140763997907,0.7615369380075262,0.3319507020429569,0.566812521036688,0.6395621861792435,0.7065107314364117,0.7325345315360292,0.7095435684647303,0.6124455081630908
0.4525020702709097,0.3662363165371438,0.3167666765331109,0.5966117216117217,0.753218459100812,0.3462537843571956,0.5367440816784472,0.6028248383484449,0.6892620299892196,0.744882675986021,0.7475465981690048,0.6621933498589624
0.4758665562522181,0.3716470293306593,0.3131071226757796,0.5859497645211932,0.7707796923483198,0.347731769529667,0.5160626799805528,0.581548242603764,0.661624906079514,0.7328673656182393,0.7617401040637555,0.699546969826481
0.5059150597421035,0.3702473468705607,0.2976078357506122,0.5787218733647306,0.8065623555819633,0.3400557820210255,0.5018512285425782,0.5738539898132429,0.6316683545130837,0.6979197869861874,0.7406639004149378,0.7127532267715189
0.5160889624985212,0.3765145817665245,0.3010521217339827,0.5710034013605443,0.8080147884069452,0.345157214713104,0.4871535958711994,0.5618610699707401,0.5996863872464148,0.6574138791812281,0.6977540670486728,0.7076673219933328
0.5304034070744115,0.4013328319545416,0.3265075478298308,0.5476190476190477,0.7847758632072357,0.3705928627619252,0.4522981412917461,0.5228118339775314,0.5548005618895169,0.6307871526044266,0.6809589672660212,0.7265150867595521
0.541701171181829,0.4314991225871145,0.3602238785889191,0.5208660387231817,0.749719416386083,0.4027509594984386,0.3940311903960507,0.4552613517321099,0.4999836660024174,0.620236312198369,0.693143647500494,0.7714761945465424
0.5369099727907252,0.4380588284448901,0.3708527298657267,0.517072213500785,0.7340067340067339,0.4111897780638394,0.3433935450091627,0.3857963371021927,0.3906438861847048,0.5263438176069228,0.6235592438911941,0.7657492093341313
0.4458180527623329,0.3874404612684883,0.3470925382773188,0.5818942961800105,0.7122862613058691,0.3717847862881118,0.3854669209768503,0.4025936495322039,0.2966907320897717,0.3689798635380262,0.4617993808865178,0.6487733994358493
0.3644268307109902,0.3419403359237904,0.3255119339127627,0.6399790685504972,0.693404634581105,0.3362654652077523,0.4686413104454168,0.4777661380630712,0.3114239979092483,0.3232484606423698,0.3914904827767899,0.5538934951705274
0.3145037264876375,0.3216136040778808,0.322040739445147,0.6697082679225538,0.6697695913382187,0.3231304679491764,0.5502823591009388,0.5625835350214934,0.3975041651693836,0.3883175237144283,0.423170651386419,0.5104709804256774
0.2986513663788004,0.3006392579593883,0.3022630035250114,0.6905088958660387,0.6852181950221166,0.3023909985935302,0.6405998728449083,0.658563017014052,0.4877985038058214,0.4589449159593942,0.4598564183626424,0.4737584408923839
0.3033834141724831,0.2876451909417565,0.2833463391007185,0.6993720565149137,0.7110318875024757,0.2866099311068202,0.6908261341112234,0.7152404002456381,0.5399366240893797,0.5038442336495257,0.4903510505170256,0.465509872638687
0.3069916006151663,0.2847622628896131,0.277991550735947,0.7006148613291471,0.7196144451046411,0.2826050680588333,0.6907139384419761,0.7223566809955569,0.5618568488451864,0.5318355799633883,0.5145886847131661,0.4673048978545174
0.3269253519460546,0.2855561126431018,0.2699190054624223,0.6944989534275249,0.740608701393015,0.2794583899497008,0.6839821982871461,0.7218870787125674,0.5859331612818922,0.5601597603594608,0.5380030297042745,0.4741003504573041
0.3488110729918373,0.2874153923289044,0.2623846298737992,0.6870094191522763,0.7621311150722914,0.2771937352499464,0.676053704327013,0.7215258461871906,0.6081147299990199,0.5857214178731901,0.5602977013765396,0.4896144969655527
0.3764344019874601,0.2922202724158101,0.2560342275919597,0.6755952380952381,0.7853040205981382,0.2771222198383751,0.6704439208646545,0.7221038182277932,0.6263434713011663,0.6060575802962223,0.5780478166370282,0.504402085648346
0.3969005086951378,0.3000752068187515,0.2568145736350671,0.663788592360021,0.7957351290684623,0.2819614293546926,0.6682374060361271,0.7251742946934941,0.6472183202116886,0.6268929938425695,0.5960943160113285,0.5201726643302848
0.4029338696320833,0.3067811481574329,0.2627075316847402,0.6568550497121927,0.7919059879844192,0.2883978163961,0.66217883989678,0.7241267203699022,0.665479729509,0.6454318522216674,0.6115392214977277,0.5323959312761775
0.4086714775819235,0.3139884682877914,0.2693808357775206,0.6496598639455783,0.7868884927708456,0.2954540036711244,0.6517820412132092,0.718852725499404,0.6787756035412107,0.6596105841238142,0.6238556280050057,0.5401743738781093
0.4139358807523956,0.3224492353973426,0.2778570083147216,0.6415816326530613,0.7794282696243481,0.3040358530596677,0.6397397060473465,0.7096774193548387,0.6916794616314397,0.674388417373939,0.6364354870578937,0.5496623643046414
0.4344019874600733,0.3340645107378624,0.2835616069746791,0.6268315018315019,0.7838515877731563,0.3131898257407804,0.618272934664722,0.693891557995882,0.7035052758812192,0.6906972874022299,0.6517815978396891,0.5661167621164203
0.4432745770732285,0.3416896465279518,0.2892931141188817,0.6183935112506541,0.7818049778834091,0.3200791437221388,0.6019297655110514,0.679911859263808,0.7100062069190813,0.7008487269096355,0.662780741618916,0.5763313103684076
0.4381284750975985,0.3425461686304003,0.2927643085864973,0.6191457352171638,0.7746748531062256,0.3221054137166559,0.5934776917610981,0.6716035111801467,0.7091241710496227,0.7016808121151605,0.6648224988473951,0.5766732199333277
0.4345794392523365,0.3426297317623464,0.2944864515781826,0.6200614861329147,0.7705816333267314,0.3229159217144628,0.5877931111859083,0.6649207094606798,0.70726209532521,0.6998502246630055,0.664098004346967,0.5753483203692623
0.4385425292795457,0.3437578340436198,0.2941366412829965,0.6180664573521717,0.7732224202812438,0.3233926911249374,0.5854370021317178,0.6623920817830438,0.7086341511221457,0.7004826094192045,0.6648883619837976,0.5762458329771776
0.4466461611262274,0.3468914514916019,0.2944864515781826,0.6133895866038723,0.7773156400607381,0.3253474457078834,0.5881670967500655,0.6667991185926381,0.7149064061938519,0.7066733233483108,0.6705855232826187,0.582400205145739
0.4479474742694901,0.3470585777554942,0.2941097327987514,0.6128990057561486,0.7785039941902687,0.3252759302963122,0.5897752346759415,0.6688581439872847,0.7173565058312371,0.709535696455317,0.6732529803069223,0.5863749038379349
0.4408494025789661,0.3448232639759338,0.2944326346096925,0.6166274201988489,0.7741466957153231,0.3241316837111731,0.5856987920266279,0.664162121157389,0.7132076704452648,0.7056082542852388,0.6700915497595996,0.5827848534062741
0.439015734058914,0.344029414222445,0.2942711837042219,0.6177394034536893,0.7732884399551065,0.323607237359651,0.5797898201129437,0.6575876891955352,0.7095161869916045,0.7028790148111166,0.6669301192122769,0.5787246773228482
0.4413817579557553,0.3453037519846244,0.2948093533891236,0.6161041339612768,0.7739486366937346,0.324584614651124,0.5784808706383934,0.6568291008922444,0.7093855150109438,0.7032451323015477,0.6676875452809063,0.5790665868877682
0.4474742694901218,0.3483746970836467,0.2960471436643974,0.6119832548403977,0.7758632072357561,0.3268731078214021,0.5805377912412581,0.6609832749340752,0.7132076704452648,0.7086037610251289,0.6724955542382929,0.5847080947089495
0.4519105642966994,0.3502339767694493,0.2964238624438285,0.6093341182626898,0.7779098171255033,0.3281127082886362,0.5828939002954486,0.6634396561066359,0.7155270981019896,0.710534198701947,0.6751959428307976,0.5898367381827507
0.4496036909972791,0.3484582602155929,0.2951591636843096,0.6113618524332811,0.7781738958209545,0.3265393692340699,0.579341037435955,0.6587797565292779,0.7117702786579988,0.7068397403894158,0.6718698544424685,0.586545858620395
0.4451673961907015,0.3469541238405615,0.2952398891370449,0.6137493458922031,0.775599128540305,0.3257050227657393,0.5731328770709451,0.6525665570928006,0.707523439286531,0.7028457314028956,0.6679509978265166,0.5815026925378238
0.4424464687093339,0.3470167961895212,0.2965853133492991,0.6144361590790163,0.77243018419489,0.3263486614698801,0.5745914207711583,0.6536141314163927,0.7078501192381823,0.7031119986686636,0.6691694658499638,0.582485682536969
0.4501360463740684,0.3507353555611264,0.2978231036245728,0.6093995290423863,0.775203010497128,0.3290185701685379,0.5786304648640562,0.6585991402665897,0.7119009506386594,0.7082376435346979,0.6748007640123823,0.5888537481836055
0.4544540399858038,0.3522186011531712,0.2977961951403278,0.6070447409733125,0.7776457384300521,0.3298529166368686,0.5808369796925839,0.6601163168731712,0.7137630263630721,0.710334498252621,0.6774682210366858,0.5924437986152663
0.452975275050278,0.3524901813319963,0.2988187175416409,0.6072409733124019,0.7755331088664422,0.3304727168704855,0.5778076966229104,0.6568291008922444,0.7114762667015125,0.7077716758196039,0.6749324902851873,0.591033421659971
0.4413226073583343,0.3503593214673686,0.3013750235449237,0.612146781789639,0.7658942364824718,0.3303773629883907,0.5717865290399791,0.6505436549506918,0.705596027571788,0.7015809618904976,0.6677534084173088,0.5854346525344047
0.4438069324500178,0.3515292053146152,0.3017517423243549,0.6105442176870749,0.7668185119165511,0.3312117094567212,0.5701783911141031,0.6482678900408193,0.7046813237071641,0.7007488766849724,0.6664032141210564,0.5846226173177195
0.4491896368153318,0.3532213587365254,0.3014826574819041,0.6077315541601257,0.7701855152835544,0.3320460559250519,0.5723101088297993,0.6516634757793592,0.7076541112671916,0.7043102013646196,0.6701574128960021,0.5898794768783657
0.4536850822193304,0.3550597476393414,0.3018055592928451,0.6050497121925694,0.7722981448471644,0.3332618179217622,0.5751897976738098,0.6551313080229744,0.7105288948417237,0.7080046596771509,0.6749654218533887,0.5968458842636123
0.4513782089199101,0.35531043703518,0.3031778919893442,0.6055075876504449,0.7693272595233379,0.3340008105079978,0.5702157896705188,0.6507242712133801,0.706543399431577,0.7049758695290397,0.6722979648290852,0.5941533464398667
0.4448124926061753,0.3538689730091083,0.3043349568118828,0.6084510727367871,0.7641777249620385,0.3336909103911893,0.5625490856052957,0.6421991836144928,0.6981150566789717,0.6978532201697453,0.6658104458934334,0.5874006325326951
0.4426239205015971,0.3548717305924626,0.3065952694884697,0.6082548403976975,0.7602165445302699,0.3352642494457555,0.5602677736639367,0.639092583896254,0.6956322890464213,0.6966883008820103,0.6644273200289798,0.58693050688093
0.4522063172838045,0.3591125595387315,0.3076985173425181,0.6023024594453167,0.7641777249620385,0.3381725428496507,0.5647556004338232,0.6434634974533107,0.6993237725000818,0.7006490264603095,0.6675228874398998,0.5920164116591162
0.451200757127647,0.3602615526029915,0.309635928208164,0.6016810570382,0.7612728593120749,0.3396743664926459,0.5652791802236434,0.6445110717769028,0.6989317565581,0.7003827591945414,0.6686425607587434,0.595350029917087
0.4412634567609133,0.3581515835213503,0.3114387966525845,0.606063579277865,0.7534825377962632,0.3392691124937424,0.5586222371816448,0.6383701188455009,0.6925614975008983,0.6943251788983191,0.6631759204373312,0.590990682964356
0.4348751922394416,0.3575039692487674,0.313537658423701,0.6083202511773941,0.7473427081270219,0.339841235786312,0.5528628594936236,0.6298089079940757,0.6840678187579629,0.6862705941088366,0.656622538365277,0.5849645268826397
0.4376552703182302,0.359321467368597,0.3145601808250142,0.6061616954474098,0.7476728064963358,0.3413192209587833,0.5495343879726243,0.6257269804573204,0.6796249714155043,0.6828756864702945,0.6542185338865837,0.5839815368834943
0.4402578966047557,0.3632071530040945,0.318435002556306,0.6024005756148614,0.7443718228031954,0.345252568595199,0.550918134560006,0.6273164035689773,0.6800823233478162,0.6850058245964386,0.6573470328657051,0.5893666125309855
0.4393706376434402,0.3653171220857357,0.3215294782444905,0.6009615384615385,0.7400805440021125,0.3478509618822856,0.5516287071319048,0.626304952497923,0.6787429355460456,0.6838409053087037,0.6576104854113153,0.5934267886144116
0.4351709452265468,0.3653589036517088,0.3235207060786266,0.6021062271062272,0.7352611078101273,0.3487568237621874,0.543513220389693,0.6178159881515732,0.6687138610303487,0.673922449658845,0.6504972666798393,0.5895375673134456
0.4300248432509168,0.3656513746135205,0.3262115545031349,0.6033163265306123,0.7291212781408859,0.3501156165820401,0.5333782116010323,0.6062926705920602,0.6570513867563949,0.6632384756199035,0.6420997167885135,0.5833831951448841
0.4323317165503372,0.3697041865129104,0.3303823695611226,0.5994897959183674,0.7252921370568428,0.3542635104531693,0.5296757545158757,0.6005851966911101,0.6499950998007253,0.6577134298552172,0.6387736284001845,0.582656637319429
0.432154264758074,0.3716052477646862,0.3329117670801604,0.5980507587650445,0.722123192711428,0.3564566497413526,0.5289277833875613,0.5986345410540765,0.645878932409918,0.655683141953736,0.6389053546729896,0.5858620394905548
0.432095114160653,0.3747388652126681,0.3370018566854129,0.5956305599162742,0.7170396778239915,0.3600800972609597,0.5270204570103595,0.5959614203662897,0.640129365260854,0.6529871858878349,0.6380820654679576,0.5890674416616806
0.4238731811191293,0.3759714214088744,0.3423028280816941,0.5969060701203559,0.7059483726150392,0.3631075830174736,0.5199521298477879,0.5858830329082831,0.6285975629675608,0.6429688800133134,0.6296186524402292,0.5828275921018891
0.4167159588311842,0.376451909417565,0.346177649812986,0.5985413396127682,0.6972337756651481,0.365110014541467,0.5086577658102398,0.5721200736914352,0.6137989611577538,0.6285904476618406,0.6176974247513666,0.5748781947174973
0.4155920974801846,0.3769115066432689,0.3473078061512795,0.5984759288330718,0.695187165775401,0.3658728455982264,0.5011032574142639,0.5628002745367193,0.6014831269804972,0.6172408054584788,0.6081472699729962,0.5722711342849817
0.4167159588311842,0.3792303835547756,0.349756478217582,0.5963500784929356,0.6928104575163399,0.3682805311211233,0.4983731627959161,0.5590073330202652,0.5936428081408645,0.6108503910800466,0.6045247974708556,0.5741088981964271
0.4134035253756063,0.381883512994067,0.3546807308344321,0.5951726844583988,0.6849541163266653,0.3719754940523016,0.4981113729010061,0.5569483076256186,0.5865211851948646,0.6057913130304542,0.6015280247645393,0.5761603555859476
0.4082574233999764,0.3827400350965153,0.3581250168178027,0.5959249084249085,0.6778239915494817,0.3740017640468188,0.4879015669995138,0.545172127298342,0.571559243409232,0.5918122815776334,0.591648554304156,0.5689375160270109
0.400626996332663,0.3816746051642016,0.3602507870731641,0.5988683935112507,0.6709579454677493,0.374335502634151,0.4780657466621789,0.5337571794964419,0.558165365391526,0.5790647362289898,0.5814397681617599,0.5609453799470041
0.3941204306163492,0.3826564719645692,0.364448510615397,0.5999149659863946,0.6621773288439954,0.3767431881570478,0.4744380866898538,0.5280858288480295,0.5503250465518931,0.5724413379930104,0.5772903905683988,0.5615864603812292
0.3976694664616113,0.3863332497702013,0.3675698947878266,0.5960557299843015,0.6603287779758367,0.3802236048535126,0.4735405213358765,0.5257739406856193,0.542876743654242,0.5666833083707771,0.5737008496344596,0.5638516112488247
0.390334792381403,0.385476727667753,0.3698032989801685,0.598770277341706,0.6534627318941043,0.3807242127345109,0.4706982310482815,0.5209334248455731,0.5340890529548202,0.5590946912963887,0.5683988671540539,0.5627831438584494
0.3830001183011948,0.3843068438205064,0.371633075908834,0.6017137624280482,0.6471248432032746,0.3808672435576534,0.4637420995549572,0.5121915977314597,0.5222632387050408,0.5486104177067732,0.5603635645129421,0.5587657064706385
0.3786229740920383,0.3842650622545333,0.3735973952587251,0.6029565672422815,0.6423054070112894,0.3817254284965076,0.4559258012640712,0.502546689303905,0.5102414164842703,0.5380262938924945,0.5500889152341435,0.5507735703906317
0.378090618715249,0.3847664410462104,0.3744584667545677,0.6026949241234956,0.6409189938601703,0.3823929056711721,0.4536818878791279,0.4986092547773001,0.50419783737872,0.5317357297387252,0.5444576170717249,0.5483802034361912
0.3803974920146694,0.3858318709785242,0.3747813685655087,0.6012231815803245,0.6418432692942496,0.3831318982574078,0.4595160626799806,0.5026911823140555,0.5049165332723531,0.5325678149442503,0.5440624382533097,0.5509872638687068
0.3805749438069324,0.3837010111138966,0.371955977719775,0.6028257456828886,0.6454083316828415,0.3806765357934635,0.4636673024421258,0.5061590145576708,0.5063539250596191,0.5328673656182392,0.5441283013897121,0.5519275151722369
0.3771442091565125,0.3794810729506142,0.3681080644727282,0.6070774463631607,0.6482471776589424,0.376552480392858,0.4638168966677886,0.5072788353863382,0.5051125412433439,0.5304376768181062,0.5398142659553448,0.5473117360458158
0.3726487637525139,0.3755953873151166,0.3651212227215241,0.6113945578231293,0.64936951211461,0.3730005482848221,0.4662104042783949,0.5083986562150056,0.5054718891901604,0.5292727575303711,0.5370150826582363,0.5403025899649543
0.3824086123269845,0.3737569984123004,0.3583402846917634,0.6101190476190477,0.6631016042780747,0.3689718467663115,0.471446202176596,0.5148647184192465,0.5109274443827383,0.5319354301880512,0.5382664822498848,0.5384648260535089
0.3886194250561931,0.3725662237820673,0.3539542017598149,0.6093341182626898,0.6719482405756915,0.3663257765381773,0.4829275589962228,0.5292778961817722,0.5242886544052792,0.5417540356132468,0.5456760850951723,0.543123343875545
0.3958357979415592,0.3708531795771705,0.348464870973818,0.6086800104657248,0.6827754670891925,0.3629168752532837,0.4948950970492539,0.5428963623884695,0.5384012283166183,0.5530038275919454,0.5538760455772904,0.5476109069151209
0.3945936353957175,0.3652753405197627,0.3418453838495278,0.6133895866038723,0.6901696705618273,0.3568142267992085,0.4999065036089607,0.5499403966333128,0.5485283068178106,0.5603261774005658,0.5579595600342488,0.5462432686554407
0.3939429788240862,0.3601362079050722,0.3355218900519334,0.6176085818942962,0.6975638740344622,0.3510929938735131,0.5033471707992072,0.5551782682512734,0.5564666296429388,0.565252121817274,0.5597049331489166,0.5424395247457048
0.4008635987223471,0.3586320715300409,0.3304361865296128,0.6168563579277866,0.7076648841354722,0.3479701542349043,0.5123228243389806,0.5680381461546797,0.5704485315736174,0.5767348976535197,0.5676414410854246,0.5450038464826054
0.412812019401396,0.3585693991810812,0.3249199472593709,0.6136185243328101,0.721066877929623,0.3454909533004363,0.5248513407382476,0.5846909655745403,0.5883179249289472,0.5927109335996006,0.5794968056378845,0.5518420377810069
0.4173074648053945,0.3570234812400769,0.3208836746226085,0.6135858189429618,0.7285271010761206,0.3428210446017783,0.5359961105501329,0.5989596503269154,0.6051746104341577,0.6079547345648194,0.59046301784891,0.5589366612530986
0.4220986631964983,0.3534511573493774,0.3141027365928477,0.6150248560962848,0.7395523866112101,0.3377911273212711,0.5407457272149295,0.6054979590362316,0.6154323609160106,0.6156099184556497,0.5935585852598301,0.5573980682109583
0.4288418313024962,0.3533467034344447,0.3109006269676829,0.6132587650444794,0.747276688453159,0.336289303678276,0.54284004637421,0.6090380377849222,0.6241873836202673,0.6222000332834081,0.5967858789435553,0.5542781434310625
0.4287235301076541,0.3513202974847497,0.3083443209644001,0.6148940345368917,0.7503135934508484,0.3340246489785215,0.5491230038520514,0.61709352310082,0.6352618339812486,0.6317190880346147,0.6032733978792071,0.556372339516198
0.432095114160653,0.3507562463441129,0.3060840082878132,0.6143707482993197,0.754934970621245,0.3326896946291926,0.5570888963686002,0.6283639778925695,0.6490803959361015,0.6456315526709934,0.6147335836132516,0.5638088725532097
0.4439252336448598,0.3520305841062922,0.3023437289777467,0.6101190476190477,0.7661583151779229,0.331759994278767,0.5648303975466548,0.63930932341148,0.6629642938812845,0.6584789482443002,0.6256339326878746,0.5714163603726815
0.4459363539571749,0.3496908164117991,0.2984150902779646,0.6113945578231293,0.7721000858255759,0.3286848315812057,0.567897079172744,0.6428132789076328,0.6701185848224495,0.6631719088034613,0.6293881314628202,0.5714590990682965
0.4436886312551757,0.3479150998579427,0.2971234830342007,0.6133895866038723,0.77243018419489,0.3270876540561158,0.5663263398032836,0.6429216486652459,0.6727320244356604,0.6651023464802795,0.6296845155766317,0.5679117873322507
0.4501951969714894,0.3486462772624717,0.2951322552000646,0.6110347985347986,0.7785039941902687,0.3266347231161648,0.5662889412468679,0.6442582090091392,0.6742020842180916,0.6667665168913296,0.6305736679180663,0.5680400034190957
0.4570566662723294,0.3514038606166959,0.2955358824637408,0.6069793301936159,0.7818049778834091,0.3283749314643973,0.5707019709039232,0.6486291225661959,0.6782855836137337,0.6709269429189548,0.634690113943226,0.5727412599367467
0.4539216846090145,0.3514456421826689,0.2970427575814655,0.6078296703296704,0.7782399154948174,0.3290662471095854,0.5742922323198325,0.6519163385471228,0.6839044787821372,0.6757197537027791,0.6387406968319831,0.5752201042824173
0.4449899443984385,0.3478733182919696,0.2965045878965638,0.613095238095238,0.7738826170198718,0.326801592409831,0.5736190583043496,0.6519163385471228,0.687465290255137,0.6785821268097852,0.6405190015148522,0.5740661595008121
0.4453448479829646,0.3449903902398262,0.2926297661652719,0.6152210884353743,0.7789001122334455,0.3234403680659848,0.571001159355249,0.6500740526677022,0.6886413380810821,0.6793476451988683,0.6401896858328393,0.5709462347209163
0.4488347332308057,0.3463482911339517,0.2927912170707424,0.6132260596546312,0.7806166237538786,0.3242747145343155,0.5734320655222709,0.652963912870715,0.6935415373558526,0.6839740389415875,0.644404926562603,0.5726557825455167
0.4556370519342245,0.349189437620122,0.2933562952398891,0.6091051805337521,0.7837195484254307,0.3261579537056903,0.5791166460974607,0.6594660983274935,0.7011858482244945,0.692261607588617,0.6507936507936508,0.5790665868877682
0.458121377025908,0.3494610177989471,0.2925759491967818,0.6082221350078494,0.7860962566844919,0.3259672459415004,0.5840532555443361,0.6645594769353033,0.708013459214008,0.6985854551506074,0.6558651122966476,0.5853064364475596
0.4523246184786467,0.3466407620957633,0.2916072437639588,0.612015960230246,0.7840496467947448,0.3239171374764595,0.5829686974082801,0.6639092583896254,0.7095488549867695,0.6988517224163755,0.6549100968188105,0.5832122403624241
0.4474742694901218,0.34315200133701,0.2892931141188817,0.6160714285714286,0.7841816861424704,0.3209134901904694,0.578667863420472,0.6608387819239245,0.7071640913397145,0.6959560659011481,0.6521767766581045,0.5764167877596376
0.4495445403998581,0.3446770284950279,0.2902887280359498,0.6143053375196232,0.7841156664686075,0.3222246060692746,0.5798272186693594,0.6621392190152802,0.7088301590931365,0.6976868031286404,0.6542843970229862,0.5771860842807077
0.4574707204542766,0.3479568814239157,0.2909345316578318,0.6095630559916275,0.7877467485310622,0.3243700684164104,0.5829686974082801,0.6658960372791966,0.7133383424259254,0.7025128973206856,0.6591582691167753,0.5826993760150441
0.4568200638826452,0.3485000417815659,0.2919301455748997,0.6093341182626898,0.7861622763583547,0.3251328994731698,0.5867085530498524,0.6697251020481885,0.7178791937538794,0.7069728740222998,0.6626819469143121,0.5860329942730148
0.4524429196734887,0.3469750146235481,0.2919570540591449,0.6117216117216118,0.7836535287515678,0.3242747145343155,0.5859231833651222,0.6690748835025105,0.7179771977393747,0.7062406390414379,0.6619574524138839,0.5856056073168647
0.4449307938010174,0.3434026907328487,0.2907730807523612,0.6165947148090006,0.7809467221231926,0.3217001597177525,0.5811361681439097,0.6637286421269372,0.7145143902518704,0.7019470793809285,0.6578739379569255,0.5809043507992137
0.4536259316219094,0.3442383220523105,0.2878938729381374,0.6135531135531135,0.7893312207037697,0.3209134901904694,0.5802386027899323,0.6628255608134956,0.7125869785371272,0.7000499251123314,0.6557333860238425,0.5779126421061629
0.4565834614929611,0.3474346118492521,0.2906385383311358,0.6102171637885924,0.7876147091833365,0.323964814417507,0.5865589588241894,0.6688581439872847,0.7169318218940904,0.7053752704276918,0.6612329579134558,0.5828703307975042
0.4680586773926416,0.3523439458510904,0.2917686946694293,0.6032182103610676,0.7926322043969102,0.3272545233497819,0.5899248289016045,0.6725427157461258,0.7220280291398518,0.7107006157430521,0.6674899558716987,0.5901359090520558
0.4632083284041169,0.350338430684382,0.2913919758899981,0.6061289900575615,0.7903875354855746,0.3259434074709766,0.5872321328396725,0.6695806090380378,0.719937277449283,0.7089033116991179,0.6655469933478232,0.5885545773143004
0.4533893292322252,0.3469750146235481,0.2914996098269785,0.6114599686028258,0.7847758632072357,0.3240840067701256,0.5833426829724373,0.6648484629556046,0.7153637581261638,0.7057081045099017,0.6620233155502866,0.5830840242755791
0.4525612208683308,0.3467452160106961,0.2916341522482039,0.6118851386708529,0.7841156664686075,0.3239886528880307,0.5829686974082801,0.6658237907741213,0.7155270981019896,0.7063404892661007,0.6632088520055325,0.5845371399264895
0.4596592925588549,0.3504219938163281,0.2931141188816834,0.6070120355834642,0.7862282960322176,0.3267539154687835,0.5871573357268409,0.6699779648159521,0.7200679494299435,0.7106340489266101,0.6673252980306922,0.5890674416616806
0.4634449307938011,0.3515292053146152,0.2928181255549875,0.6051151229722659,0.7887370436390043,0.3272545233497819,0.5895882418938629,0.6727955785138894,0.7229427330044755,0.7131635879514062,0.66907067114536,0.5918881955722711
0.4584762806104342,0.3496072532798529,0.2925759491967818,0.6079931972789117,0.7862282960322176,0.3260625998235953,0.5861101761472007,0.6692193765126613,0.7202966253960994,0.7107006157430521,0.6662056247118489,0.5893666125309855
0.4492487874127529,0.3468496699256288,0.2932486613029088,0.6127027734170591,0.7802865253845646,0.3247753224153138,0.5811735667003254,0.6640898746523137,0.7162131260004574,0.7073057081045098,0.6627478100507146,0.5846226173177195
0.4462321069442801,0.3461602740870728,0.2937599225035654,0.6140763997906855,0.7779758367993661,0.3246084531216477,0.579079247541045,0.6621392190152802,0.7146123942373658,0.7057746713263439,0.662550220641507,0.5819300794939739
0.4638589849757483,0.3521559288042116,0.2934370206926244,0.6045264259549974,0.7882088862481019,0.3278743235833989,0.5846142338905719,0.6682801719466821,0.7194799255169712,0.710234648027958,0.6672594348942897,0.5888110094879905
0.46853188217201,0.3544330241497451,0.2942173667357318,0.601419413919414,0.7898593780946721,0.3295191780495363,0.5874565241781667,0.6704475670989416,0.7222893731011728,0.7128973206856382,0.6709807021010341,0.5933840499187966
0.4554596001419614,0.3496281440628395,0.2940020988617711,0.6088108320251178,0.7828612926652142,0.3266824000572123,0.5852874079060548,0.667449337138316,0.7192512495508151,0.7092028623731069,0.6680497925311204,0.5894520899222155
0.4490713356204898,0.3464736358318709,0.2928450340392326,0.6130298273155417,0.7806826434277413,0.3243939068869341,0.5795280302180337,0.6621392190152802,0.7139263663388978,0.7041770677317356,0.6634723045511428,0.5842807077527994
0.452916124452857,0.3469959054065346,0.2917686946694293,0.6115907901622188,0.7841816861424704,0.3242031991227443,0.5791166460974607,0.6619224795000542,0.7129136584887786,0.7039440838741886,0.663274715141935,0.5847935721001796
0.4639181355731693,0.3506309016461937,0.2914457928584883,0.6057038199895344,0.7906516141810258,0.3261341152351665,0.5842402483264146,0.6665101325723369,0.7171931658554115,0.7085039108004659,0.666469077257459,0.5888964868792205
0.465219448716432,0.3521559288042116,0.2927912170707424,0.6041339612768185,0.7897273387469466,0.3276121004076378,0.5865215602677738,0.6689303904923599,0.7194145895266407,0.710667332334831,0.668477902917737,0.5904350799213609
0.4577073228439607,0.3499623965906242,0.2934101122083793,0.6079277864992151,0.7848418828810985,0.3266347231161648,0.5833052844160216,0.6662211465520356,0.7176178497925583,0.7086037610251289,0.667424092735296,0.5887682707923755
0.451259907725068,0.3473719395002925,0.2930064849447031,0.61175431711146,0.7816729385356835,0.3249660301795037,0.5796402258872808,0.6615251237221399,0.7134363464114207,0.7043434847728407,0.664098004346967,0.5843234464484144
0.4548680941677511,0.3474972841982117,0.2915265183112235,0.6106423338566196,0.7855680992935894,0.3243700684164104,0.5787426605333035,0.6598995773579454,0.7116069386821731,0.7033782659344316,0.662319699664098,0.582913069493119
0.4620844670531173,0.3507562463441129,0.2924144982913113,0.6060962846677133,0.788472964943553,0.3266347231161648,0.5824077190620442,0.6639815048947008,0.7138936983437327,0.7064403394907638,0.6647566357109926,0.5876570647063852
0.4658701052880634,0.3536391743962563,0.2944326346096925,0.6027930402930404,0.7880768469003763,0.3291616009916804,0.5866711544934365,0.6680634324314562,0.7188265656136684,0.710867032784157,0.6695317131001779,0.5941960851354816
0.4605465515201704,0.3511949527868304,0.2937061055350752,0.6061944008372581,0.7860302370106291,0.3274452311139717,0.5837166685365945,0.6649207094606798,0.7166704779327693,0.7084706273922449,0.6674570243034974,0.5918027181810411
0.4549272447651721,0.347664410462104,0.2917148777009391,0.6104788069073784,0.7853700402720011,0.3245607761806002,0.5799768128950223,0.6605136726510855,0.7109209107837052,0.7023797636878016,0.6613976157544622,0.5836823660141892
0.4525612208683308,0.346933233057575,0.2918494201221645,0.6117216117216118,0.7838515877731563,0.3242031991227443,0.5776207038408318,0.6579850449734495,0.7091568390447879,0.6998835080712263,0.6598827636172034,0.5820155568852039
0.4602507985330652,0.3505891200802206,0.2930603019131932,0.6067503924646782,0.7866244140753943,0.3268254308803547,0.581098769587494,0.6612722609543763,0.7129136584887786,0.7031119986686636,0.663274715141935,0.5871869390546202
0.4590086359872235,0.3504637753823013,0.2934639291768695,0.6071755625327054,0.7855020796197265,0.3269207847624497,0.584988219454729,0.6648845862081422,0.7153637581261638,0.7065069063072058,0.6661397615754462,0.5899649542695957
0.4555187507393825,0.349231219186095,0.2934639291768695,0.6091051805337521,0.7835214894038424,0.3262294691172615,0.5828939002954486,0.662572698045732,0.7133056744307602,0.7051755699783657,0.6659421721662385,0.5888110094879905
0.4497219921921211,0.3463691819169381,0.2924144982913113,0.6129317111459969,0.7816069188618207,0.3241316837111731,0.578929653315382,0.6580572914785248,0.7089281630786319,0.7004493260109835,0.6621550418230916,0.5834686725361142
0.4496628415947001,0.3458886939082476,0.2918225116379195,0.6133568812140241,0.7822671156004488,0.323607237359651,0.5777702980664947,0.6569013473973196,0.7079154552285127,0.6986520219670493,0.66031087400382,0.5815881699290538
0.4571158168697504,0.3484791509985794,0.2917956031536743,0.6092360020931449,0.7864923747276688,0.3250613840615986,0.5823703205056285,0.6618141097424413,0.7116069386821731,0.7019470793809285,0.6636698939603504,0.5859047781861697
0.4594818407665917,0.3508189186930726,0.2937330140193203,0.6067830978545264,0.7853700402720011,0.3272545233497819,0.5856613934702121,0.6651735722284434,0.71444905426154,0.7052421367948077,0.6667325298030692,0.5904350799213609
0.4554596001419614,0.348541823347539,0.2926028576810268,0.6096611721611722,0.7845117845117845,0.325466638060502,0.5833426829724373,0.6622114655203555,0.7123909705661363,0.7036778166084207,0.665053019824804,0.5888537481836055
0.4596001419614338,0.3470376869725077,0.2887818529182251,0.6096938775510203,0.7915758896151052,0.3228920832439391,0.5787426605333035,0.6569735939023951,0.708013459214008,0.6995173905807954,0.6614305473226635,0.5837678434054193
0.4561694073110138,0.3470376869725077,0.2903425450044399,0.6106423338566196,0.7877467485310622,0.3235833988891273,0.5780694865178204,0.6558537730737275,0.7079154552285127,0.6987185887834914,0.6598827636172034,0.582955808188734
0.4578847746362238,0.3486671680454583,0.2916610607324489,0.6088762428048143,0.787086551792434,0.3251090610026461,0.5808369796925839,0.6590687425495793,0.7114109307111823,0.7018805125644865,0.662319699664098,0.5879989742713052
0.4609606057021176,0.3502130859864628,0.2922530473858408,0.6068158032443747,0.7880108272265134,0.3262533075877851,0.5845394367777405,0.6630784235812593,0.7148410702035217,0.7053752704276918,0.6651518145294079,0.591118899051201
0.4530344256476991,0.3477688643770369,0.2927104916180072,0.6109366823652539,0.7830593516868026,0.3250613840615986,0.5827443060697858,0.6621392190152802,0.713044330469439,0.7041105009152937,0.6637028255285518,0.5885973160099154
0.4464095587365432,0.3438413971755661,0.2906654468153809,0.6158424908424909,0.781870997557272,0.3219147059524661,0.5778076966229104,0.6569013473973196,0.7086014831269806,0.6997170910301215,0.6588948165711651,0.582400205145739
0.4496036909972791,0.3441547589203643,0.2896160159298227,0.6147305075876505,0.7849079025549613,0.3216286443061813,0.5760125659149558,0.6545533359823719,0.7066087354219072,0.6981860542519553,0.6578410063887242,0.5808616121035985
0.4584171300130131,0.3478942090749561,0.2904232704571752,0.6093341182626898,0.78886908298673,0.3241316837111731,0.5811361681439097,0.6612361377018388,0.7108229067982098,0.7024130470960225,0.662319699664098,0.586545858620395
0.4625576718324855,0.3490849837051892,0.2901003686462342,0.6072736787022502,0.7915758896151052,0.3246561300626952,0.5827817046262015,0.6638008886320125,0.7142530462905492,0.7054751206523547,0.6651518145294079,0.5900504316608257
0.4542174375961197,0.3458678031252611,0.289723649866803,0.6120813710099425,0.7874166501617482,0.3226536985387017,0.5807995811361681,0.660477549398548,0.7121296266048153,0.7022133466466965,0.6617598630046764,0.5858193007949398
0.4454039985803857,0.3421910253196289,0.2889971207921858,0.6174123495552066,0.7833234303822538,0.3202460130158049,0.5762369572534501,0.6551313080229744,0.7075561072816962,0.6976535197204193,0.6568530593426859,0.582271989058894
0.4465870105288064,0.3425043870644271,0.2888356698867153,0.6168563579277866,0.7841816861424704,0.3203413668978998,0.5754889861251357,0.6550229382653614,0.7066740714122375,0.6963554667998002,0.6557333860238425,0.5803060090606035
0.4533301786348042,0.3461602740870728,0.2905039959099104,0.6121140763997907,0.7858981976629035,0.3231781448902239,0.5802386027899323,0.6596828378427194,0.709908202933586,0.7002829089698784,0.6593887900941843,0.5856056073168647
0.4560511061161718,0.347852427508983,0.2914457928584883,0.6100536368393512,0.7862943157060804,0.3245607761806002,0.5825199147312914,0.6626088212982698,0.7128156545032831,0.7037776668330836,0.662550220641507,0.5885973160099154
0.4497219921921211,0.3456588952953956,0.2914996098269785,0.6135204081632654,0.7826632336436257,0.3233211757133662,0.5795654287744494,0.6591771123071921,0.7095161869916045,0.7015143950740554,0.6601132845946124,0.5847508334045645
0.4447533420087542,0.3431937829029831,0.2905847213626457,0.6168236525379384,0.7810127417970555,0.3215094519535627,0.5767231384868544,0.6544088429722212,0.7055633595766228,0.6982193376601764,0.6566884015016795,0.5801350542781434
