Lead I,Lead II,Lead III,aVR,aVL,aVF,V1,V2,V3,V4,V5,V6
0.4875783745415828,0.3720857357733768,0.308317412480155,0.582352171637886,0.7831913910345282,0.3458485303582922,0.5471782789184338,0.6382617490878879,0.6679298291463853,0.6627725079048095,0.6044260027662518,0.5741088981964271
0.4851532000473205,0.3709158519261302,0.3079137852164788,0.5839220303506019,0.7823331352743117,0.3450141838899616,0.5418302853509855,0.6343243145612831,0.6642383456927249,0.6590114827758361,0.6015609563327405,0.5691512095050859
0.4863362119957411,0.3715007938497535,0.3081290530904394,0.5831698063840921,0.7827292533174884,0.3454432763593887,0.5411945098919182,0.6340353285409819,0.665218385547679,0.6598435679813612,0.6024501086741751,0.5698777673305411
0.4957411569856856,0.3748015375616277,0.3081021446061944,0.5779696493982208,0.7880108272265134,0.3473026770602398,0.5477018587082538,0.6403930209876098,0.670477932769266,0.6660009985022466,0.6081143384047948,0.5777844260193179
0.5028983792736307,0.3767861619453497,0.3074025240158222,0.5744374672946102,0.7928302634184986,0.3481370235285704,0.5512173230113318,0.6442943322616769,0.6735487243147888,0.6690963554667997,0.6110781795429098,0.5814172151465937
0.4929019283094759,0.3738823431102198,0.3082097785431747,0.5794740973312402,0.7862943157060804,0.3468259076497652,0.5470660832491866,0.6401762814723838,0.6698899088562935,0.6654684639707105,0.6072251860633603,0.5775279938456279
0.4875192239441618,0.3722946436032422,0.3086134058068509,0.5821886446886447,0.7827952729913513,0.3460869150635295,0.5431766333819515,0.6355525051475635,0.6658064094606514,0.6614411715759694,0.6026806296515841,0.5720147021112916
0.4903584526203715,0.3725035514331077,0.3075908834055378,0.5812401883830456,0.7856341189674522,0.345777014946721,0.5430270391562887,0.6345771773290467,0.6657737414654864,0.6612747545348643,0.602087861423961,0.5722283955893667
0.4952679522063172,0.3748642099105875,0.3083981379328903,0.5780677655677656,0.7874166501617482,0.3474695463539059,0.5481506413852425,0.6401040349673085,0.6706086047499266,0.6674321850557497,0.6072251860633603,0.5803914864518335
0.4933751330888442,0.3750313361744798,0.3094744773026935,0.5784275248560963,0.7850399419026869,0.3480416696464755,0.5514043157934104,0.6430661416753964,0.6727646924308256,0.6705275420203028,0.6102878219060791,0.582656637319429
0.4892937418667929,0.3734018551015292,0.3092323009444878,0.5808477237048666,0.7830593516868026,0.3469927769434313,0.5461311193387935,0.6379727630675867,0.6692365489529908,0.6658012980529207,0.6067641441085424,0.578639199931618
0.4866911155802674,0.3722737528202556,0.308963216102037,0.5824502878074308,0.781870997557272,0.3462537843571956,0.5401847488686937,0.6323014124191741,0.6638136617555781,0.6611749043102013,0.6026806296515841,0.573809727327122
0.4897669466461611,0.3736734352803543,0.3093668433657132,0.5804879644165359,0.7831253713606654,0.3472311616486686,0.5406709301020981,0.6337824657732183,0.6648263696056973,0.6627392244965884,0.6042942764934467,0.5744508077613472
0.4975156749083165,0.3752820255703183,0.3079137852164788,0.5770866038723182,0.7892652010299069,0.3474933848244297,0.5451961554284005,0.6387674746234151,0.6694652249191467,0.6676651689132967,0.609563327405651,0.5806051799299086
0.4978114278954218,0.3758251859279685,0.3084788633856255,0.5765960230245945,0.7886710239651415,0.3480416696464755,0.548898612513557,0.6418740743416538,0.6717846525758715,0.6696288899983357,0.6122307844299545,0.5841097529703394
0.4891754406719508,0.3738823431102198,0.3099050130506148,0.5805206698063842,0.7821350762527233,0.3475649002360009,0.5462433150080408,0.6370696817541451,0.6682565090980367,0.6658012980529207,0.6098267799512612,0.5806906573211386
0.4905359044126345,0.372399097518175,0.3074025240158222,0.5812728937728938,0.7859642173367662,0.3456339841235786,0.5411571113355025,0.6311454683379693,0.6625396099441377,0.6602429688800133,0.6046235921754595,0.5741516368920421
0.491364012776529,0.372858694743879,0.3075639749212926,0.5807169021454737,0.7862282960322176,0.3459677227109108,0.5399229589737836,0.6302423870245277,0.6617555780601745,0.6600765518389082,0.6042613449252453,0.5755620138473374
0.4955045545960014,0.3745090665998161,0.3078330597637435,0.5782639979068551,0.7882088862481019,0.347016615413955,0.5442237929615917,0.6354441353899505,0.6674724772140734,0.6647695123980695,0.609069353882632,0.5811180442772886
0.4971607713237904,0.3765981448984708,0.3097704706293894,0.5761708529565673,0.7867564534231201,0.3490667238789959,0.5479262500467482,0.6393815699165554,0.6692365489529908,0.6673656182393076,0.612164921293552,0.5834259338404992
0.4940849402578966,0.3744672850338431,0.3084250464171353,0.5786891679748823,0.7866904337492572,0.3472550001191923,0.5434384232768615,0.634432684318896,0.664042337721734,0.6636378765185554,0.6075215701771718,0.5785964612360031
0.4862179108008991,0.3718977187264978,0.3086672227753411,0.5828754578754579,0.7820030369049976,0.3458962072993397,0.5392871835147164,0.6300978940143771,0.6594361504034498,0.6591113330004993,0.6022525192649674,0.5721856568937517
0.4856264048266887,0.3723782067351884,0.3095821112396739,0.5826792255363685,0.7805506040800159,0.3465636844740041,0.5403343430943566,0.6311815915905068,0.6596974943647709,0.6598102845731403,0.6030758084699993,0.5732113855885119
0.4939074884656336,0.3744881758168296,0.3085595888383607,0.5787218733647306,0.786426355053806,0.3473265155307636,0.5437750102846031,0.6361666004407037,0.6642383456927249,0.6635047428856715,0.608015543700191,0.5785109838447731
0.4967467171418431,0.3739867970251525,0.3065952694884697,0.5783294086865516,0.7903875354855746,0.3461822689456244,0.5454579453233106,0.6382256258353503,0.665218385547679,0.6641371276418705,0.6100243693604689,0.5804769638430636
0.4921921211404235,0.3725035514331077,0.3067836288781853,0.5807496075353219,0.7876147091833365,0.3454194378888651,0.5420920752458955,0.6340714517935194,0.6617229100650093,0.6597104343484772,0.6060725811763156,0.5765877425420977
0.4854489530344256,0.3706860533132781,0.3074832494685575,0.5840201465201466,0.7830593516868026,0.3446804453026294,0.5374172556939303,0.629158689448398,0.6573780667080462,0.6551506074222,0.6016597510373445,0.5716300538507565
0.4877558263338459,0.3720021726414306,0.3081290530904394,0.582352171637886,0.7835214894038424,0.3457054995351498,0.5382026253786605,0.6295199219737746,0.6569860507660645,0.655716425361957,0.6016597510373445,0.5723138729805967
0.4967467171418431,0.3753029163533049,0.3082905039959099,0.577315541601256,0.7883409255958276,0.3476840925886195,0.5433262276076144,0.634974533106961,0.6619515860311653,0.6602096854717923,0.606105512744517,0.5771433455850928
0.5010647107535786,0.3765563633324977,0.3079406937007238,0.5751242804814234,0.7911797715719284,0.3482323774106654,0.5453457496540635,0.6378643933099737,0.6634543138087616,0.6616741554335164,0.6081472699729962,0.5800068381912984
0.4921921211404235,0.3737152168463274,0.3082905039959099,0.5798011512297228,0.7858321779890407,0.346754392238194,0.5414189012304126,0.6337824657732183,0.6591748064421287,0.6585787984689632,0.6045906606072581,0.5757757073254124
0.4914231633739501,0.3729213670928386,0.3076447003740279,0.5806514913657771,0.7861622763583547,0.3460153996519583,0.5380904297094133,0.6286168406603331,0.6560386789062757,0.655383591279747,0.601264572218929,0.5726557825455167
0.4897669466461611,0.3729422578758252,0.3084519549013804,0.5810766614338043,0.7842477058163332,0.346396815180338,0.5385766109428176,0.6284362243976448,0.6559406749207801,0.6551173240139789,0.6012316406507279,0.5720147021112916
0.4931385306991601,0.3738196707612601,0.3080214191534591,0.579441391941392,0.7866904337492572,0.3467067152971466,0.5415684954560754,0.6325542751869379,0.6599261703309268,0.6591446164087201,0.605051702562076,0.5761603555859476
0.4952679522063172,0.3746344112977354,0.3081021446061944,0.5782312925170069,0.7877467485310622,0.3472073231781449,0.5438124088410188,0.6350467796120363,0.6626376139296332,0.6620402729239473,0.6068629388131462,0.5810325668860586
0.4884064829054773,0.3723573159522019,0.3082905039959099,0.5818942961800105,0.7836535287515678,0.3459915611814346,0.5398481618609522,0.6304952497922913,0.6588154584953122,0.6580129805292061,0.6022525192649674,0.5765877425420977
0.4863362119957411,0.3699130943427759,0.3060570998035681,0.5843799058084773,0.7853040205981382,0.3436077141290615,0.5338269942780209,0.6245710363761153,0.654013263206037,0.6531203195207189,0.597444510307581,0.5704333703735363
0.4881698805157932,0.371062087407036,0.3067567203939402,0.583006279434851,0.7854360599458639,0.3445612529500108,0.5351359437525712,0.62619658274031,0.6550259710561562,0.6542186719920119,0.5989922940130409,0.5701769381998462
0.498343783272211,0.3745926297317623,0.3066490864569599,0.5774136577708007,0.7912457912457912,0.3465398460034804,0.5407457272149295,0.6323014124191741,0.6601221783019176,0.6595107338991512,0.6041625502206416,0.5750064108043423
0.4963918135573169,0.3743419403359237,0.3071872561418615,0.5781658817373103,0.7894632600514953,0.3466351998855753,0.5428026478177943,0.6342520680562078,0.6623109339779818,0.6616075886170744,0.6063031021537245,0.5765877425420977
0.4855081036318466,0.3707905072282109,0.3075639749212926,0.5839547357404501,0.782927312339077,0.3447757991847243,0.5392497849583007,0.6298450312466135,0.6583907745581654,0.6573473123647862,0.6023513139695713,0.5726130438499017
0.4831420797350054,0.3687432104955294,0.3060570998035681,0.5861787022501309,0.7835214894038424,0.342940236954397,0.534612363962751,0.6248238991438789,0.6539479272157068,0.6529206190713929,0.5978396891259962,0.5672707068980255
0.4866911155802674,0.3707278348792512,0.306998896752146,0.5836603872318158,0.7843137254901961,0.3444897375384395,0.5352481394218184,0.6256547339522451,0.6551239750416518,0.6539856881344649,0.5985641836264243,0.5686383451577058
0.4926653259197918,0.3739450154591794,0.3083981379328903,0.5795068027210886,0.7859642173367662,0.3469451000023839,0.5400351546430309,0.631470577610808,0.659958838326092,0.6592111832251623,0.6041625502206416,0.5760748781947175
0.4924878741275286,0.374007687808139,0.3085595888383607,0.5794740973312402,0.7856341189674522,0.3470404538844788,0.5415310968996597,0.6338185890257558,0.6612655581326974,0.6608420702279912,0.6060396496081144,0.5768014360201728
0.4880515793209512,0.3714381215007938,0.3072679815945968,0.5827119309262166,0.7847758632072357,0.3450141838899616,0.5382026253786605,0.6298811544991512,0.6578680866355232,0.6572474621401231,0.6022525192649674,0.5732968629797418
0.4860404590086359,0.3709785242750898,0.3076177918897829,0.5836276818419676,0.7831913910345282,0.344894991537343,0.5353229365346498,0.625979843225084,0.6543399431576884,0.6529539024796138,0.5977738259895936,0.5697068125480811
0.4903584526203715,0.3728378039608925,0.3080483276377042,0.5809785452642596,0.7851059615765498,0.3461584304751007,0.5361457047757957,0.6274247733265903,0.6554833229884682,0.6536195706440339,0.5982019363762102,0.5703051542866912
0.4995859458180527,0.3760132029748475,0.3079137852164788,0.5759419152276296,0.7903875354855746,0.3479224772938568,0.5395863719660421,0.6317595636311094,0.6603508542680736,0.6587452155100681,0.6026806296515841,0.5757757073254124
0.4958594581805277,0.3774546670009192,0.3114657051368297,0.5758437990580848,0.783983627120882,0.35030632434623,0.5425034593664685,0.6334573565003793,0.6641403417072295,0.6638042935596604,0.6071593229269578,0.5815881699290538
0.4934342836862652,0.3793766190356814,0.3150445335414256,0.5750261643118786,0.7782399154948174,0.3530000715154116,0.5393993791839635,0.6298811544991512,0.6643363496782203,0.6644033949076386,0.6082131331093986,0.5812889990597487
0.4932568318940021,0.3818208406451074,0.3182735516508355,0.5731619570905285,0.7741466957153231,0.3558130110372118,0.5338269942780209,0.6239208178304374,0.6624742739538075,0.6618738558828424,0.6063031021537245,0.578211812975468
0.5014196143381048,0.3879627308431519,0.3224712751930684,0.5660975928833072,0.7735525186505579,0.3611766669050514,0.5358091177680542,0.6254018711844815,0.6665251053542844,0.6664336828091195,0.6106500691562933,0.5831695016668093
0.5077487282621554,0.3904905155845241,0.3228479939724996,0.5623691784406071,0.77665544332211,0.3627738444301414,0.5396985676352893,0.6311454683379693,0.6728953644114861,0.6723914128806788,0.6163472304551143,0.5886400547055305
0.5079853306518396,0.3883387649369098,0.3199687861582757,0.5640044479330194,0.7802865253845646,0.3602708050251496,0.5391749878454692,0.6336379727630677,0.6757048119956879,0.6741221501081711,0.6185207139563986,0.591204376442431
0.5085176860286289,0.3880045124091251,0.3192960740521486,0.5641025641025641,0.7814088598402323,0.359794035614675,0.5310221025468417,0.6281472383773435,0.6729933683969815,0.6716258944915958,0.6164789567279194,0.590862466877511
0.5098781497693127,0.391138129857107,0.3226865430670291,0.5612899005756149,0.7779758367993661,0.3630837445469499,0.5197277385092935,0.6183939601921756,0.6696939008853027,0.6694291895490098,0.6138773628400185,0.5896230447046756
0.517449426239205,0.3970084398763265,0.3268035411565266,0.5545852956567242,0.7771836007130124,0.3682566926505995,0.5104528965181945,0.6108080771592674,0.6684525170690275,0.6708936595107339,0.6169729302509386,0.595264552525857
0.5269726724239915,0.4017924291802456,0.3286333180851923,0.548207744636316,0.7802865253845646,0.3717847862881118,0.5063016567560493,0.6077376006935664,0.668550521054523,0.6729905142286571,0.6225054337087532,0.6041114625181639
0.5352537560629363,0.4012492688225954,0.3241934181847536,0.546343537414966,0.7903215158117118,0.3695201315883573,0.5077975990126781,0.6100494888559767,0.6683545130835321,0.673523048760193,0.6241520121188171,0.6077869903410549
0.5473204779368271,0.3969666583103534,0.3131878481285149,0.546343537414966,0.8105235360137321,0.3622017211375718,0.5076480047870153,0.6114582957049454,0.6629969618764496,0.6677317357297387,0.6181913982743859,0.6015471407812634
0.5490358452620372,0.3921408874404612,0.3061916422247935,0.549646781789639,0.8200963887238396,0.3563612958592577,0.508508171584577,0.6122168840082362,0.658782790500147,0.6624729572308203,0.6132187314759928,0.5957774168732372
0.5475570803265114,0.3891743962563717,0.3030433495681188,0.5523940345368917,0.823133293721529,0.3532622946911726,0.5157634915292271,0.6182855904345628,0.6607428702100553,0.6631719088034613,0.6142396100902325,0.5963330199162322
0.5479711345084586,0.3896966658310353,0.3035007938002852,0.5518707482993197,0.8228031953522148,0.3537629025721709,0.5223456374583941,0.6237040783152116,0.6639443337362387,0.6654684639707105,0.6167424092735296,0.5993247286092829
0.5371465751804093,0.3874613520514749,0.3055727470871566,0.5566130298273155,0.8142206377500495,0.353405325514315,0.5233927970380343,0.6217895459307156,0.6607755382052204,0.6633716092527875,0.6142066785220313,0.5978288742627575
0.5224180764225719,0.3828444890114482,0.3062992761617738,0.5642987964416537,0.8051099227569815,0.3510929938735131,0.5236545869329444,0.6183578369396381,0.6569533827708993,0.6595440173073722,0.6086412434960153,0.5916745020941961
0.4988761386490004,0.3771204144731344,0.309635928208164,0.5752878074306647,0.7878787878787878,0.3493051085842332,0.5284416021541569,0.6188274392226276,0.6563000228675966,0.657114328507239,0.6043272080616479,0.5839387981878793
0.4908908079971608,0.3740912509400852,0.3093668433657132,0.5798665620094192,0.7837195484254307,0.3474457078833822,0.5359213134373013,0.6242098038507388,0.6575414066838718,0.655916125811283,0.6016268194691431,0.5787246773228482
0.491364012776529,0.3714381215007938,0.3057611064768722,0.581828885400314,0.7884069452696902,0.3443467067152971,0.5442611915180074,0.6321569194090236,0.6600895103067526,0.6577799966716591,0.6018902720147534,0.5758184460210274
0.4892345912693718,0.3685551934486504,0.3030164410838737,0.5846415489272632,0.790585594507163,0.3414860902524494,0.5487490182878941,0.6359137376729401,0.6596321583744407,0.6572474621401231,0.600902324968715,0.5724848277630568
0.4835561339169526,0.3657349377454667,0.3019670101983155,0.58843537414966,0.7887370436390043,0.3394121433168848,0.5457197352182206,0.63190405664126,0.6546339551141747,0.6514228657014477,0.5958637950339195,0.5663304555944952
0.4777593753696912,0.3634369516169465,0.3016441083873745,0.5918367346938777,0.7858981976629035,0.3379579966149372,0.5407457272149295,0.6274970198316657,0.6490150599457711,0.6454984190381094,0.5902983600079036,0.5610308573382341
0.4729681769785875,0.3626639926464444,0.3028280816941582,0.5937663526949242,0.7818049778834091,0.3380295120265084,0.5403717416507723,0.6267023082758372,0.6475123321681749,0.6438342486270594,0.589277481393664,0.5596204803829388
0.4781734295516385,0.3652544497367761,0.3037967871269811,0.59029958137101,0.7835214894038424,0.3399365896684069,0.5446725756385804,0.631687317126034,0.6522818594622849,0.6485272091862205,0.5938549693736416,0.56543294298658
0.4834378327221105,0.3653380128687223,0.3015095659661491,0.5887624280481424,0.7892652010299069,0.3389830508474576,0.5484124312801526,0.634649423834122,0.6551566430368169,0.6510900316192377,0.595797931897517,0.5686383451577058
0.4801845498639536,0.3628729004763098,0.2998143314587089,0.5916077969649399,0.789529279725358,0.3368137500297981,0.5459067280002993,0.63190405664126,0.6519551795106335,0.6478282576135795,0.5914838964631496,0.5653902042909651
0.4723175204069561,0.3610136207905072,0.3009983047654926,0.5952380952380952,0.7836535287515678,0.336289303678276,0.5405213358764352,0.62619658274031,0.6471203162261933,0.6424030620735562,0.586313640255549,0.5582528421232584
0.4758074056547971,0.3634787331829196,0.3025859053359525,0.5923600209314495,0.7836535287515678,0.3383870890843644,0.5406335315456824,0.6266661850232995,0.6480676880859823,0.6443002163421534,0.5877955608246065,0.5591503547311737
0.480835206435585,0.3662154257541573,0.3038236956112263,0.5888278388278388,0.7849079025549613,0.3405087129609764,0.5447847713078275,0.6314344543582704,0.6530658913462482,0.6493260109835246,0.5930646117368109,0.5646636464655099
0.4817816159943215,0.3668630400267402,0.3042273228749025,0.588042909471481,0.7849739222288241,0.3410569977830222,0.5506563446650959,0.6381172560777373,0.6599261703309268,0.6543850890331169,0.5976420997167885,0.5685101290708607
0.4745060925115344,0.3644814907662738,0.3044694992331082,0.5919348508634223,0.7806166237538786,0.3397935588452645,0.5577994689404989,0.6453419065852689,0.666884453301101,0.655982692627725,0.5935915168280314,0.5588511838618686
0.4588903347923814,0.3629146820422829,0.3095552027554288,0.597462061747776,0.7656961774608833,0.3411523516651172,0.5619133101462284,0.6476176714951414,0.6681911731077064,0.65648194375104,0.5917473490087597,0.5506026156081717
0.4647462439370638,0.3709785242750898,0.3173048462180125,0.589514652014652,0.7594243084439162,0.3491859162316146,0.5451213583155691,0.6284362243976448,0.6605468622390644,0.6643035446829755,0.6107159322926957,0.5688947773313959
0.477286170590323,0.3844739700843987,0.3289562198961333,0.575484039769754,0.7521621443190071,0.3620586903144294,0.5129585997980478,0.5908319185059423,0.6462709483518997,0.6772840738891661,0.64381215833498,0.6114625181639457
0.4979888796876849,0.395190941756497,0.3333153943438366,0.5613880167451596,0.7583019739882484,0.3701160933514506,0.4820673921986612,0.5531192428566268,0.6267681552383131,0.6820768846729904,0.6713429493512482,0.6532182237798103
0.5230687329942032,0.3932898805047213,0.3194844334418642,0.5559262166405023,0.7893312207037697,0.36289303678276,0.4590298814465762,0.5300003612325255,0.5924667603149195,0.6577134298552172,0.6675228874398998,0.6733481494144798
0.5460783153909855,0.3894668672181833,0.3040927804536771,0.552557561486133,0.821020664157919,0.3538820949247896,0.4486704813194211,0.5258461871906946,0.5607461370095718,0.6173073722749209,0.6343607982612133,0.6725788528934098
0.5605702117591388,0.3986797025152502,0.3093668433657132,0.5413396127681842,0.8226711560044893,0.3614865670218599,0.4370769288305472,0.5154788137123867,0.5253666982457287,0.5773672824097188,0.5924389119409866,0.664800410291478
0.5760676682834497,0.4235815158352135,0.3343917337136399,0.5175627943485087,0.8005545652604475,0.3867791842475386,0.4012117132278694,0.4737925802839288,0.4820162686615922,0.5593942419703777,0.587499176710795,0.6905718437473288
0.5894948538980244,0.452473468705607,0.3654979415009552,0.4912676609105181,0.7699214365881031,0.4170302033421536,0.334455290025805,0.3956218617924358,0.4192610499493647,0.5414877683474787,0.592834090759402,0.7297632276262929
0.5634685910327695,0.447271663741957,0.370637461991766,0.502518315018315,0.7491252393213177,0.4163388876969654,0.2896892179961853,0.3246757938084745,0.3006435595047532,0.4330171409552338,0.5029309095699137,0.6938627233096846
0.4733230805631137,0.3983454499874655,0.3486263218792886,0.5657378335949765,0.7258202944477454,0.3786979427399938,0.3469090093122405,0.3573673373550554,0.2230897389827186,0.3006823098685305,0.3621484555094513,0.5739806821095821
0.3993848337868212,0.3664452243670092,0.3411995802276458,0.6111656200941916,0.6936687132765563,0.3571956423275882,0.4373013201690415,0.4456164433045551,0.2637287249681487,0.2960891995340322,0.3363301060396496,0.5144029404222583
0.3436649710162073,0.3483329155176736,0.3431908080617819,0.6407312925170069,0.6601307189542482,0.3477556080001907,0.5271326526796066,0.5397175161651555,0.3567345072032929,0.3677150940256281,0.3778897451096621,0.4855543208821267
0.3195906778658465,0.3289044873401855,0.3290907623173587,0.6625784929356358,0.6639598600382913,0.3304012014589144,0.6160290212797787,0.6329155077123145,0.4367057593675477,0.4273589615576635,0.4094052558782849,0.4576032139499102
0.3195906778658465,0.3175399013955043,0.3144794553722789,0.671474358974359,0.6818511916551132,0.3174569119645283,0.6532031863570067,0.676010547989741,0.4751559896769136,0.4597770011649192,0.4310412961865243,0.4500384648260535
0.3323080563113688,0.3158268571906075,0.3064607270672443,0.6693158032443747,0.6988182478378556,0.3129276025650194,0.6455738808481992,0.6764079037676552,0.4938747509065369,0.4836079214511565,0.4503391951524731,0.4519617061287289
0.3563823494617296,0.3171011949527868,0.2971773000026909,0.6616627420198848,0.7236416452102725,0.3095425397506496,0.6393283219267736,0.6787920384351408,0.5207931789226096,0.5117324013979031,0.4744451030758085,0.4658945208992222
0.3854252927954573,0.3222612183504638,0.2906116298468907,0.6495944531658818,0.7478708655179243,0.3095663782211733,0.6333819514566738,0.6795867499909692,0.5473849269870308,0.5388583790980196,0.4990120529539616,0.4861099239251217
0.4105642966993967,0.3260424500710286,0.2840459596910906,0.6396847200418629,0.769987456261966,0.3088273856349376,0.623658326788586,0.6753964526966008,0.5649929763810395,0.5568647029455815,0.5154778370546005,0.5002564321736901
0.425115343664971,0.3311189103367594,0.2839652342383554,0.6317046049188906,0.7781738958209545,0.3116880020977854,0.6136355136691723,0.6729039482715024,0.5811963019829474,0.5729073057081044,0.5298030692221564,0.5099153773826823
0.4325683189400213,0.3389320631737277,0.2906654468153809,0.6235282574568289,0.7741466957153231,0.3191017664306658,0.6041736788959947,0.6705559368565546,0.5981509914736532,0.5895157264103843,0.544819864321939,0.5216257799811951
0.4470602153081746,0.3497952703267318,0.2980114630142884,0.6110020931449504,0.7732224202812438,0.3285656392285871,0.6001346348030966,0.6728678250189648,0.6173271046355886,0.6085205525045765,0.5617137588091945,0.5354731173604582
0.46338578019638,0.3602615526029915,0.3040927804536771,0.5983124018838305,0.774872912127814,0.3372190040287015,0.5894760462246158,0.6676299534010042,0.6339551141746431,0.6262938924945914,0.5780478166370282,0.5513291734336269
0.4693599905359044,0.3688894459764352,0.3124882275381428,0.5898744113029828,0.767874826698356,0.3458723688288159,0.5659523542391264,0.6492070946067985,0.6448335565646336,0.6403062073556332,0.5915497595995521,0.5656893751602702
0.4708387554714302,0.3718141555945517,0.3155827032263273,0.5871925693354265,0.7649699610483924,0.3488998545853298,0.5459815251131307,0.6321569194090236,0.6470223122406978,0.6444333499750374,0.5965224263979451,0.5703051542866912
0.4697148941204306,0.371062087407036,0.3151252589941609,0.5881083202511774,0.7648379217006668,0.3482800543517128,0.5358465163244699,0.6222591482137051,0.6445722126033127,0.6420036611749043,0.5935915168280314,0.5669287973331054
0.468591032769431,0.371751483245592,0.3165245001749052,0.5878466771323915,0.7625272331154683,0.3492812701137095,0.5340139870600995,0.6198388902936821,0.6454869164679364,0.6428690297886502,0.5945136007376671,0.5668433199418754
0.4787649355258488,0.376451909417565,0.3179506498398946,0.5813710099424385,0.7664223938733742,0.3525948175165082,0.535696922098807,0.6227648737492323,0.6508771356701839,0.6494924280246297,0.6012316406507279,0.5725275664586718
0.4807169052407429,0.3775173393498788,0.318435002556306,0.5799973835688121,0.7669505512642767,0.3534291639848387,0.5367440816784472,0.6252935014268685,0.655189311031982,0.654251955400233,0.6056774023579002,0.5777844260193179
0.4786466343310067,0.3766399264644439,0.3182197346823454,0.5812401883830456,0.7660262758301972,0.3528332022217454,0.5326676390291335,0.6213921901528014,0.6530658913462482,0.6524213679480779,0.6040637555160377,0.5756474912385674
0.4769904176032178,0.3767443803793766,0.3191346231466782,0.5816326530612246,0.7639796659404502,0.3533099716322201,0.5273944425745166,0.6154679767366255,0.6487863839796153,0.6481943751040106,0.5998814463544754,0.5708607573296863
0.4765763634212706,0.378102281273502,0.321045125528079,0.5806841967556253,0.7614048986598005,0.3549309876278338,0.5260854930999663,0.6138424303724308,0.6475776681585051,0.6482609419204527,0.5993216096950537,0.5706898025472263
0.4840884892937419,0.3807971922787666,0.3211258509808143,0.5764979068550498,0.7654981184392948,0.3565043266824,0.5296757545158757,0.6185023299497886,0.6526412074091013,0.6535197204193709,0.6051175656984786,0.5779126421061629
0.4856855554241098,0.3814448065513495,0.3212334849177946,0.5755494505494506,0.7662903545256485,0.3569095806813035,0.5329668274804593,0.6213560669002638,0.6558100029401197,0.65714761191546,0.6086741750642165,0.5826138986238141
0.4823731219685319,0.3807971922787666,0.3219061970239216,0.5769884877027734,0.7635835478972733,0.3568380652697323,0.5309099068775945,0.6186106997074017,0.6542746071673582,0.655849558994841,0.6083448593822037,0.5822292503632789
0.4830829291375843,0.3807971922787666,0.3215563867287356,0.576792255363684,0.7644418036574898,0.3566711959760662,0.526272485882045,0.6135173210995918,0.6506811276991932,0.6514561491096688,0.6054798129486926,0.5778699034105479
0.4862179108008991,0.3819044037770535,0.3215832952129807,0.5750588697017269,0.7661583151779229,0.3573148346802069,0.5234675941508659,0.6112054329371818,0.6498644278200647,0.6502912298219337,0.6039978923796351,0.5759894008034875
0.4876375251390039,0.3844321885184257,0.3241934181847536,0.5726713762428048,0.7637155872449989,0.3599370664378173,0.5271700512360223,0.6140591698876567,0.6541439351866976,0.655017473789316,0.6085424487914115,0.5821865116676639
0.4917780669584762,0.3856856354976184,0.3239243333423028,0.5705455259026688,0.7663563741995114,0.3605330282009106,0.5292643703953028,0.6179966044142615,0.6571167227467251,0.6591446164087201,0.6126588948165712,0.5882554064449953
0.4859221578137939,0.3833667585861118,0.3236014315313619,0.5739795918367347,0.7635175282234105,0.3590550430284393,0.5258237032050563,0.6152512372213994,0.654699291104505,0.6567149276085871,0.6108805901337022,0.5860329942730148
0.4830237785401633,0.3836592295479234,0.3252966660388021,0.5745682888540031,0.759820426487093,0.3599847433788648,0.5197277385092935,0.6093992703102987,0.6497664238345693,0.6518222666000998,0.60669828097214,0.5818018634071288
0.4842659410860049,0.385017130442049,0.3264806393455857,0.5731619570905285,0.7590942100746022,0.3612720207871463,0.5181196005834175,0.6076653541884911,0.6473489921923492,0.6500249625561657,0.6058420601989066,0.5813744764509787
0.4926653259197918,0.3881089663240578,0.3266420902510561,0.5684196755625327,0.7635175282234105,0.3631075830174736,0.522083847563484,0.611602788715096,0.6498970958152299,0.6536528540522549,0.6096291905420537,0.5868450294897
0.4991718916361055,0.3902607169716721,0.3264537308613405,0.5649201988487703,0.7674126889813163,0.3642518296026127,0.5246269493997532,0.6142036628978074,0.6523798634477803,0.656615077383924,0.6124283738391623,0.5917172407898111
0.4856264048266887,0.3869808640427843,0.3283911417269865,0.571232339089482,0.7575097379018947,0.3632267753700923,0.5200643255170351,0.608315572734169,0.6481003560811474,0.6520552504576468,0.6086741750642165,0.5876998034020002
0.4779368271619543,0.3852678198378875,0.3296827489707505,0.5746991104133962,0.7515679672542417,0.3628215213711888,0.5131081940237107,0.6010909222266374,0.6418281010094411,0.6454984190381094,0.6030758084699993,0.5838105821010343
0.4823139713711109,0.3878791677112058,0.3310281731830046,0.5714612768184197,0.7524262230144582,0.3649193067772772,0.5104528965181945,0.5989957735794531,0.6396720133285421,0.6439673822599434,0.6027464927879865,0.5834686725361142
0.4880515793209512,0.3912425837720398,0.3327503161746899,0.5672095761381476,0.7534825377962632,0.3676130539464588,0.5119114402184076,0.6008741827114114,0.641109405115808,0.6464636378765185,0.6064018968583283,0.5879134968800753
0.4924287235301077,0.3928093924960307,0.33280413314318,0.5647893772893773,0.7558592460553244,0.3685189158263606,0.513070795467295,0.6022107430553048,0.6417300970239457,0.6479946746546846,0.6077191595863796,0.5920164116591162
0.4865728143854253,0.3923497952703267,0.3349029949142965,0.5667517006802721,0.750049514755397,0.369186393001025,0.5090691499308128,0.5973341039627208,0.6363398778216981,0.6440006656681643,0.6042942764934467,0.5891529190529106
0.4791198391103751,0.3912216929890532,0.3368134972956973,0.5697278911564626,0.7435135670429788,0.3693771007652149,0.5013276487527581,0.5875447025250154,0.6283688870014048,0.637177566982859,0.5984983204900218,0.5837678434054193
0.4817224653969005,0.3940419486922369,0.3392621693619999,0.5667844060701205,0.7419290948702713,0.3720946864049202,0.4983731627959161,0.5844381028067767,0.6244813955767535,0.6338825095689798,0.5966870842389514,0.5836823660141892
0.4905950550100556,0.3993482075708198,0.3420875602077335,0.5601779173207745,0.743447547369116,0.3763617726286681,0.4996447137140506,0.5852328143626052,0.6244487275815883,0.6354135463471459,0.5986959098992295,0.5879562355756903
0.4859221578137939,0.3999540402774296,0.3449667680219573,0.5609955520669807,0.7373077176998745,0.3779827886242819,0.499457720931972,0.584835458584691,0.6228479958184966,0.6350807122649359,0.5997826516498715,0.591076160355586
0.4781142789542174,0.3982409960725327,0.3463121922342114,0.5644950287807431,0.7312999273783587,0.3776013730959021,0.4928755750028049,0.5762020012281907,0.6137989611577538,0.6279247794974205,0.594974642692485,0.5877852807932302
0.472199219212114,0.3982409960725327,0.3490030406587197,0.5661302982731554,0.7246979599920775,0.3787932966220887,0.4836381315681215,0.5647509301737528,0.6024958348306165,0.61893825927775,0.5861489824145426,0.5810753055816738
0.4733822311605348,0.4008941255118241,0.3518822484729435,0.5637100994243852,0.7218591140159767,0.3815823976733652,0.479786080257302,0.5588267167575769,0.5957008918362681,0.6126809785322017,0.5825594414806033,0.5803914864518335
0.4734413817579557,0.404445558619537,0.3564297823103625,0.5609301412872841,0.7162474417376378,0.3856349376623996,0.4792998990238977,0.5571650471408446,0.5937081441311947,0.6112165085704775,0.5830534150036225,0.5841524916659544
0.4706613036791671,0.406931561794936,0.3608965906950461,0.5597527472527474,0.7092493563081798,0.3890200004767694,0.4760462246157299,0.5531553661091645,0.5879912449772958,0.6076551838908303,0.5819008101165778,0.5856056073168647
0.4672305690287472,0.4078716470293306,0.3636681645722897,0.5599816849816851,0.703901762725292,0.3907840472955255,0.4684543176633382,0.5440523064696745,0.5767534546404888,0.5994341820602429,0.5752486333399197,0.5828703307975042
0.4539808352064356,0.4065137461352051,0.3679466135672578,0.5646912611198326,0.6912920050174951,0.3919044554101408,0.4572347507386215,0.5311924285662681,0.561758844859691,0.5862872358129472,0.564150694856089,0.5748781947174973
0.4488938838282267,0.4079552101612768,0.3721443371094907,0.5649529042386185,0.6833036244800951,0.3945982025793225,0.4490444668835783,0.5201387132897446,0.5497696906340858,0.5767348976535197,0.5575314496476322,0.5731686468928968
0.4567017626878031,0.412780981031169,0.3747813685655087,0.5590332286760858,0.6844259589357627,0.3985077117452145,0.4489322712143311,0.5162012787631398,0.54362810754304,0.5730737227492095,0.5563788447605875,0.5771433455850928
0.4563468591032769,0.4160817247430434,0.3791674514974572,0.5565476190476191,0.6788803063312866,0.4023218670290114,0.4472119376192079,0.5122277209839974,0.5371271765051779,0.5679813612913962,0.5549957188961339,0.5799640994956834
0.4472968176978588,0.415266984206568,0.3822350187013966,0.5596873364730508,0.67003367003367,0.4032277289089132,0.4385728710871761,0.5012823754650869,0.5237986344778021,0.5567648527209186,0.5461700586181915,0.573766988631507
0.4317993611735479,0.4137628478315367,0.3873476307079622,0.565149136577708,0.6551132237406747,0.4046341986698133,0.428475260854931,0.4875916627533143,0.5077913168468852,0.5440838741887168,0.5352697095435685,0.5662022395076503
0.4308529516148113,0.4157892537812317,0.3904151979119016,0.5638082155939299,0.6508219449395919,0.4071610765453289,0.4208085567897079,0.4778745078206842,0.4954754826696286,0.5349309369279414,0.5285846011987091,0.5639798273356698
0.4367088607594936,0.4197376117656889,0.392836961493959,0.5590986394557823,0.6510860236350432,0.4104746239481275,0.4192004188638318,0.4745872918397573,0.4885825356897847,0.5305042436345481,0.5266087071066324,0.5656038977690401
0.4359990535904413,0.421116403442801,0.3949089147808304,0.558248299319728,0.6481811579850796,0.4121671553553124,0.4164703242454841,0.4706137340606148,0.4826042925745648,0.5256115826260609,0.5239741816505302,0.5665014103769553
0.4270081627824442,0.4196749394167293,0.3971961359416624,0.561845892203035,0.640324816795405,0.4123578631195023,0.4114215191293616,0.4636780695733844,0.4716278461990788,0.5162589449159594,0.5167621682144504,0.5614582442943842
0.42162545841713,0.4185468371354558,0.3981917498587305,0.5642333856619571,0.636099557668185,0.4121671553553124,0.4044653876360373,0.454936242459271,0.4598020319492993,0.5054751206523548,0.5077389185273002,0.5549192238652876
0.4176623683899207,0.4185468371354558,0.3999408013346608,0.5653126635269493,0.6317422591932396,0.4129538248825956,0.4015856987920266,0.450493082397139,0.4527130769984646,0.4979863538026293,0.5018770993874728,0.5512009573467818
0.42334082574234,0.419507813152837,0.3986222856066518,0.5629905808477237,0.6365616953852248,0.412906147941548,0.4049889674258574,0.4538164216306036,0.4535624448727582,0.4986520219670494,0.5014489890008562,0.5530814599538423
0.4263575062108127,0.4179410044288459,0.3952318165917714,0.5633830455259028,0.642437446359015,0.4104984624186512,0.409888178316317,0.4586930607231875,0.455424520597171,0.4996505242136794,0.5019100309556741,0.5537652790836823
0.4190228321306045,0.413010779644021,0.3922180663563221,0.5692700156985872,0.6419753086419753,0.4063505685475219,0.4109353378959572,0.4595600187840913,0.4535624448727582,0.4968547179231153,0.4975630639531054,0.547952816480041
0.414645687921448,0.4093548926213755,0.3895003094475688,0.573358189429618,0.6428995840760546,0.403060859615247,0.4102621638804742,0.4598490048043926,0.4534317728920976,0.4940589116325511,0.4935454126325496,0.5404308060517994
0.4238731811191293,0.4083103534720481,0.3839571616930818,0.5715920983778127,0.6548491450452234,0.4000095353882095,0.4163207300198213,0.4679767366253658,0.4602920518767764,0.4981860542519554,0.4957847592702364,0.5404308060517994
0.4291375842896013,0.4062839475223531,0.3789521836234965,0.5717556253270539,0.6639598600382913,0.3966483110443634,0.4273159056060436,0.4810894772965358,0.4718891901603999,0.5063737726743218,0.5011526048870447,0.543550730831695
0.4338696320832841,0.4036099273000752,0.3733821273847644,0.5725078492935636,0.6734006734006733,0.3926434479963765,0.4381614869666031,0.49459957374562,0.484825716245794,0.5156598435679813,0.5068497661858657,0.5472262586545859
0.4371229149414409,0.399243753655887,0.3662513790598176,0.5750261643118786,0.6839638212187231,0.3869937304822523,0.4464639664908935,0.5046779612036268,0.4949201267518213,0.5228157763354967,0.5098794704603833,0.5476536456107359
0.4297290902638117,0.3930600818918692,0.3616500282539084,0.5819270015698588,0.6854822737175678,0.3814393668502229,0.4511387860428588,0.5112523931654807,0.5034138054947568,0.527641870527542,0.5108674175064216,0.5425250021369348
0.4367088607594936,0.3915559455168379,0.3565374162473428,0.5811747776033491,0.6956493034924407,0.3783165272116141,0.4594412655671491,0.5221254921793158,0.5165790075463069,0.5367615243800965,0.5165975103734439,0.5414565347465595
0.4527386726605939,0.3929974095429096,0.3511019024298361,0.5756148613291471,0.7112959661979269,0.3767193496865241,0.4723437675305734,0.5378391070331973,0.5346117408774624,0.5507405558329173,0.5264769808338273,0.5465851782203608
0.4622027682479593,0.39178574412969,0.3452358528644081,0.5739468864468865,0.7237076648841354,0.3734534792247729,0.4844608998092674,0.5543113101903696,0.5525464702231225,0.565385255450158,0.5367186985444247,0.5545773143003676
0.4600733467408021,0.387043536391744,0.3401232408578425,0.5782312925170069,0.7288571994454347,0.3684712388853132,0.49003328471521,0.562728028031644,0.5628695566953057,0.5734065568314195,0.5409339392741882,0.5534661082143774
0.4609014551046965,0.3842232806885601,0.3360869682210801,0.5802263212977499,0.7342047930283223,0.3650861760709433,0.4932495605669622,0.5677852833869161,0.5704811995687824,0.5778998169412547,0.5426793123888559,0.5504316608257116
0.4648053945344848,0.3836174479819503,0.3335306622177973,0.5796049188906333,0.7395523866112101,0.3636081908984719,0.4999065036089607,0.5769605895314814,0.5819149978765804,0.5873190214677982,0.5492326944609103,0.5543636208222925
0.4724358216017982,0.3843277346034929,0.3309743562145145,0.5769557823129252,0.7469465900838449,0.3628691983122363,0.5096301282770486,0.5886645233536828,0.5956355558459377,0.5990347811615909,0.5592109596258974,0.5611590734250791
0.4825505737607949,0.3849962396590624,0.327234076904448,0.5736525379382522,0.7571796395325807,0.3615819209039548,0.5173716294551031,0.5984178015388506,0.6080167260135245,0.6100848726909635,0.5675426463808206,0.5662449782032652
0.4876966757364249,0.3838263558118158,0.3233861636574012,0.5731292517006803,0.7647719020268039,0.3592219123221054,0.5194659486143834,0.6028248383484449,0.6146156610368823,0.6152438009652188,0.5705394190871369,0.5656893751602702
0.4811901100201112,0.381006100108632,0.3227134515512742,0.5771193092621665,0.7619990757245659,0.3573148346802069,0.5188301731553162,0.6032944406314344,0.6167390807226161,0.6162423032118488,0.5709675294737535,0.5618428925549193
0.4811309594226902,0.3808807554107127,0.3225789091300488,0.5772501308215594,0.7620650953984287,0.3571718038570645,0.5214480721044168,0.6071235054004263,0.6233053477508086,0.6209685471792311,0.5736679180662584,0.5628258825540645
0.4916006151662132,0.3833876493690983,0.321045125528079,0.5723770277341707,0.7698554169142404,0.3579346349138239,0.528292007928494,0.6150344977061735,0.6331710822906799,0.6303877517057745,0.5810116577751432,0.5700487221130011
0.49828463267479,0.3842023899055736,0.3190538976939429,0.569891418105704,0.7759952465834817,0.3575293809149205,0.5342757769550096,0.6221869017086299,0.6419261049949365,0.6374438342486269,0.5873015873015872,0.573510556457817
0.4939666390630545,0.3823848917857441,0.3187040873987568,0.5725405546834119,0.7740146563675975,0.3563136189182102,0.5337521971651894,0.6233067225372972,0.6448335565646336,0.639374271925445,0.5892116182572614,0.5740234208051971
0.4917189163610553,0.3804211581850087,0.3171972122810322,0.5746991104133962,0.7746088334323629,0.3545257336289304,0.5305359213134373,0.6200195065563703,0.6440821926758356,0.6370444333499751,0.5863795033919516,0.5706470638516112
0.4949130486217911,0.3820506392579593,0.3178161074186691,0.5725405546834119,0.7756651482141678,0.3557414956256406,0.5318448707879876,0.621319943647726,0.6465322923132207,0.6387751705774671,0.5877626292564051,0.5711171895033764
0.4978705784928428,0.3833458678031252,0.3181390092296101,0.5706763474620618,0.7768535023436983,0.3566235190350187,0.5359961105501329,0.6264494455080736,0.6516611675541473,0.6450324513230155,0.5925706382137917,0.5766304812377127
0.4962143617650538,0.3824893457006768,0.3177622904501789,0.5718210361067504,0.7763913646266587,0.3559560418603542,0.5389879950633906,0.6302423870245277,0.656594034824083,0.6495257114328506,0.5960943160113285,0.5801350542781434
0.4952088016088963,0.3821133116069191,0.3177622904501789,0.5724097331240189,0.7758632072357561,0.3557414956256406,0.5391749878454692,0.6299172777516888,0.6576394106693673,0.6498252621068397,0.5968846736481592,0.5803060090606035
0.4875783745415828,0.3794810729506142,0.3178430159029142,0.5765633176347462,0.7715059087608106,0.354287348923693,0.5328920303676279,0.6249683921540296,0.6530985593414133,0.6442336495257113,0.592241322531779,0.573852466022737
0.4858630072163729,0.3788961310269909,0.3178699243871593,0.5774790685504971,0.7705156136528685,0.3539774488068846,0.5322188563521448,0.6249322689014919,0.6525432034236059,0.6439673822599434,0.5920766646907726,0.5720147021112916
0.5002366023896841,0.3838263558118158,0.3176546565131986,0.5696624803767663,0.7788340925595826,0.3566711959760662,0.5371180672426045,0.6297366614890005,0.6582274345823397,0.6488267598602097,0.5966541526707503,0.578126335584238
0.503253282858157,0.3847664410462104,0.3175201140919732,0.5680926216640503,0.7806826434277413,0.3571479653865408,0.5422790680279742,0.6339992052884442,0.6626049459344681,0.6522216674987518,0.600177830468287,0.5821010342764339
0.4968650183366852,0.381465697334336,0.3161746898797191,0.5724424385138671,0.778702053211857,0.3546926029225964,0.5405213358764352,0.6318679333887224,0.6609715461762112,0.6503910800465967,0.5980702101034051,0.5800923155825285
0.491245711581687,0.3805256120999415,0.3175201140919732,0.5747318158032445,0.7739486366937346,0.3547402798636439,0.5360709076629642,0.6278582523570423,0.657345398712881,0.6471293060409387,0.5954356846473029,0.5745790238481923
0.494794747426949,0.382572908832623,0.3185426364932863,0.5721480900052329,0.7746748531062256,0.3563612958592577,0.534350574067841,0.6270996640537514,0.6575414066838718,0.6473622898984855,0.5955015477837055,0.5741943755876571
0.4992901928309476,0.3849544580930893,0.3195651588945994,0.5690410779696494,0.775929226909619,0.3581730196190612,0.5378286398145032,0.6305674962973666,0.6617882460553397,0.6517556997836578,0.5995191991042613,0.5800495768869135
0.5007098071690524,0.3862287958552686,0.3205607728116675,0.567667451596023,0.7755331088664422,0.3593411046747241,0.5417928867945697,0.6345049308239714,0.6657737414654864,0.656615077383924,0.6033721925838109,0.5849645268826397
0.4994676446232107,0.3846828779142642,0.3191346231466782,0.5692046049188907,0.7765894236482471,0.357839281031729,0.5420546766894798,0.633493479752917,0.6650877135670185,0.65614910966883,0.603503918856616,0.5839387981878793
0.4931385306991601,0.3826146903985961,0.3193498910206388,0.5725732600732601,0.7727602825642041,0.3567427113876374,0.5368188787912787,0.6279304988621175,0.6598281663454314,0.6510900316192377,0.5993874728314563,0.5768869134114027
0.4967467171418431,0.384369516169466,0.3199687861582757,0.5702184720041863,0.7740146563675975,0.3580061503253951,0.5340139870600995,0.6255824874471697,0.6580967626016792,0.6493260109835246,0.5970822630573668,0.5748354560218822
0.5019519697148941,0.3865839391660399,0.3204800473589322,0.5670133437990582,0.776259325278933,0.3595079739683902,0.5373424585810989,0.6295921684788498,0.6623109339779818,0.6532867365618239,0.6006388724231049,0.5793230190614583
0.5055601561575772,0.3877538230132865,0.3203185964534618,0.5651164311878598,0.7785039941902687,0.3601039357314835,0.5412693070047496,0.6343965610663584,0.6659044134461468,0.6575470128141121,0.6039978923796351,0.5837251047098043
0.5028392286762097,0.3862287958552686,0.3195920673788446,0.5670787545787546,0.7779098171255033,0.3589120122052969,0.5395863719660421,0.6323014124191741,0.6638789977459083,0.6571808953236811,0.6027135612197853,0.582143772972049
0.4955637051934224,0.3826564719645692,0.3183273686193257,0.5718537414965986,0.7754010695187165,0.3563136189182102,0.5341635812857625,0.6260520897301592,0.658521446538826,0.6524213679480779,0.5994204043996575,0.5776134712368578
0.4936117354785284,0.3824057825687307,0.3188655383042273,0.5726059654631084,0.7736185383244206,0.3564089728003051,0.5333408130446166,0.6255102409420945,0.6573780667080462,0.6514894325178898,0.5989264308766384,0.5773570390631678
0.4985803856618952,0.3847664410462104,0.3196458843473347,0.5694008372579802,0.7754670891925793,0.35810150420749,0.5358091177680542,0.629267059206011,0.6600895103067526,0.654684639707106,0.6021207929921624,0.5806051799299086
0.5008281083638945,0.3863123589872149,0.3205876812959126,0.56753663003663,0.7755331088664422,0.3593887816157715,0.5404465387636037,0.6328071379547014,0.6634543138087616,0.6581461141620901,0.6055786076532965,0.5852209590563296
0.4973382231160534,0.3842650622545333,0.3195651588945994,0.5701203558346416,0.7748068924539512,0.3577916040906815,0.5385018138299862,0.6308926055702057,0.6620495900166606,0.6566816442003661,0.604228413357044,0.5842807077527994
0.4942032414527387,0.3811523355895378,0.3169819444070716,0.5734236002093145,0.776259325278933,0.3548594722162626,0.5330790231497065,0.6255102409420945,0.6573127307177159,0.6515227159261108,0.5999802410590792,0.5787674160184632
0.4953271028037384,0.3816328235982284,0.3171164868282969,0.5727367870225013,0.7767214629959728,0.3551932108035948,0.5316952765623247,0.6235957085575986,0.6560386789062757,0.6491263105341987,0.5988276361720345,0.5768441747157877
0.5018336685200521,0.3837010111138966,0.316793585017356,0.5693027210884354,0.7807486631016042,0.356242103506639,0.5350985451961555,0.6275331430842033,0.6588154584953122,0.6519221168247629,0.6018902720147534,0.5800068381912984
0.5078670294569976,0.3862287958552686,0.3173048462180125,0.56567242281528,0.7834554697299795,0.3579107964433002,0.5393245820711321,0.631470577610808,0.662572277939303,0.6563155267099351,0.6056774023579002,0.5847935721001796
0.5010647107535786,0.3846828779142642,0.318435002556306,0.5687467294610152,0.7783059351686802,0.3575055424443967,0.5365944874527844,0.6284362243976448,0.6596321583744407,0.654285238808454,0.6040637555160377,0.5825711599281991
0.4954454039985804,0.381423915768363,0.3167666765331109,0.5728676085818943,0.7772496203868752,0.3549071491573101,0.5315830808930776,0.6225842574865441,0.6547319590996701,0.6493925777999667,0.5997167885134691,0.5776989486280879
0.4936117354785284,0.3814865881173226,0.3176815649974437,0.5733254840397698,0.7750709711494025,0.3553600800972609,0.5304611242006059,0.6211754506375754,0.6530332233510829,0.6477949742053586,0.597576236580386,0.5762030942815626
0.4977522772980007,0.3841814991225871,0.3192691655679036,0.5700549450549451,0.7754670891925793,0.3576008963264917,0.5346871610755826,0.6260159664776217,0.6564633628434223,0.6514228657014477,0.6006059408549035,0.5798358834088384
0.4987578374541583,0.3845157516503718,0.3192422570836585,0.5695316588173731,0.7760612662573446,0.3577677656201578,0.5377538427016718,0.6294476754686992,0.6590768024566334,0.6538858379098019,0.6040637555160377,0.5844944012308745
0.4995267952206317,0.3827400350965153,0.3166052256276404,0.57070905285191,0.7796923483197992,0.3555984648024983,0.5351733423089869,0.6267745547809125,0.6573127307177159,0.6514228657014477,0.6025159718105776,0.5834686725361142
0.4953271028037384,0.3806091752318876,0.3157979711002879,0.5735544217687075,0.7783059351686802,0.354025125747932,0.5312090953289204,0.6222952714662429,0.6525432034236059,0.6468297553669495,0.5968517420799578,0.577998119497393
0.4968650183366852,0.3810478816746051,0.3156365201948174,0.5727694924123496,0.7793622499504852,0.3542158335121219,0.5295635588466285,0.6198388902936821,0.6505504557185326,0.6444333499750374,0.593196338009616,0.5754765364561074
0.5033715840529989,0.3839517005097351,0.3164437747221699,0.5686813186813188,0.7820030369049976,0.3562182650361153,0.5324432476906391,0.6232705992847596,0.6533272353075692,0.6475619903478116,0.5964894948297438,0.5785537225403882
0.5035490358452621,0.385518509233726,0.3183542771035708,0.5674385138670853,0.7798243876675248,0.3579584733843477,0.5358091177680542,0.6265216920131488,0.6565286988337526,0.6510900316192377,0.6008693934005138,0.5820582955808189
0.5013013131432628,0.3832831954541656,0.3164975916906601,0.5697933019361591,0.780814682775467,0.3558606879782593,0.5345749654063354,0.6258353502149334,0.6561366828917711,0.6508237643534698,0.6008035302641112,0.582656637319429
0.4963918135573169,0.3811314448065513,0.3159594220057585,0.5728349031920461,0.778702053211857,0.354382702805788,0.5310968996596732,0.6215728064154896,0.6514651595831564,0.6456648360792144,0.5955015477837055,0.5771433455850928
0.4937300366733704,0.3809434277596724,0.3169281274385814,0.5737179487179488,0.7760612662573446,0.3547164413931202,0.5296009574030442,0.6201639995665209,0.6498644278200647,0.6433682809119653,0.5931634064414147,0.5755192751517223
0.5023660238968414,0.38368012033091,0.3165245001749052,0.5692046049188907,0.7813428401663696,0.3560990726834966,0.5322936534649763,0.6240291875880504,0.6532945673124041,0.6463305042436345,0.5966212211025489,0.578083596888623
0.5015379155329469,0.3846202055653046,0.318112100745365,0.5686813186813188,0.7789661319073083,0.3573386731507307,0.5351733423089869,0.6266661850232995,0.6563326908627618,0.6484273589615576,0.5987617730356319,0.5817591247115138
0.4966875665444222,0.3828862705774212,0.3180582837768748,0.5713958660387232,0.7763253449527958,0.3563374573887339,0.5340139870600995,0.6256908572047827,0.655189311031982,0.6479946746546846,0.5972469208983732,0.5814599538422087
0.491127410386845,0.379857107044372,0.3166859510803756,0.5752878074306647,0.7749389318016767,0.3539774488068846,0.5300123415236172,0.621428313405339,0.6500277677958903,0.6432018638708604,0.5928999538958045,0.5751773655868023
0.491127410386845,0.379857107044372,0.3167128595646208,0.5752878074306647,0.774872912127814,0.3540012872774082,0.5281798122592468,0.6192970415056172,0.6475776681585051,0.6402729239474122,0.5905618125535138,0.5714590990682965
0.5011238613509996,0.3839934820757082,0.317466297123483,0.5693027210884354,0.7794942892982109,0.3566950344465899,0.5312090953289204,0.6226926272441571,0.6507137956943583,0.6437011149941754,0.5938220378054403,0.5748781947174973
0.5018336685200521,0.3859572156764435,0.3196997013158249,0.5675693354264784,0.7771836007130124,0.3587928198526783,0.5353977336474812,0.6270274175486761,0.6548626310803306,0.6480945248793476,0.5978396891259962,0.5809898281904436
0.4959186087779487,0.3830742876243001,0.3186502704302667,0.5714285714285715,0.7751369908232653,0.3566950344465899,0.5329668274804593,0.6244626666185024,0.6525432034236059,0.6465634881011815,0.5958308634657182,0.5790238481921532
0.4903584526203715,0.3798779978273585,0.3170895783440519,0.575484039769754,0.7740146563675975,0.3541681565710744,0.5290025805003927,0.6197666437886067,0.6476103361536704,0.6417373939091362,0.5906935388263189,0.5740661595008121
0.491304862179108,0.3809434277596724,0.3180582837768748,0.5743720565149137,0.7733544596289693,0.3552170492741186,0.5284042035977412,0.6199833833038327,0.6472183202116886,0.6410051589282741,0.5899361127576895,0.5732113855885119
0.5020111203123152,0.3847037686972507,0.3180044668083847,0.5684850863422293,0.7793622499504852,0.3573386731507307,0.5324432476906391,0.6234873387999856,0.6500931037862206,0.6438342486270594,0.5930316801686096,0.5759894008034875
0.5041405418194724,0.3855811815826857,0.3181659177138552,0.5672095761381476,0.7803525450584273,0.3579107964433002,0.5364822917835372,0.6266661850232995,0.6536212472640555,0.6477284073889166,0.5976750312849899,0.5810753055816738
0.4971016207263693,0.3833667585861118,0.3185157280090412,0.5708725798011514,0.7759952465834817,0.3568142267992085,0.5335652043831108,0.6240653108405881,0.6517918395348078,0.6462972208354134,0.596752947375354,0.5805197025386786
0.4881107299183722,0.3802540319211164,0.3185964534617765,0.5758110936682366,0.7709117316960453,0.3550501799804524,0.530311529974943,0.6200195065563703,0.6476103361536704,0.6414711266433681,0.5927023644865969,0.5733823403709719
0.4923104223352656,0.3820924208239324,0.3190538976939429,0.5732273678702251,0.7726282432164785,0.3563136189182102,0.5298253487415386,0.6189719322327782,0.6475123321681749,0.6412048593776003,0.5922742540999802,0.5715018377639115
0.4995859458180527,0.3853722737528202,0.3199418776740306,0.5686159079016222,0.7756651482141678,0.3585782736179647,0.5328920303676279,0.622909366759383,0.6515631635686518,0.6444999167914793,0.5964236316933413,0.5766732199333277
0.5082219330415237,0.3913052561209993,0.323655248499852,0.5616169544740973,0.775929226909619,0.3636081908984719,0.5369684730169416,0.6268106780334501,0.6593054784227893,0.6524546513562988,0.6027794243561878,0.5863321651423199
0.5082810836389448,0.3933525528536809,0.3262922799558701,0.5599816849816851,0.7726942628903413,0.3659443610097976,0.5340887841729309,0.6247877758913413,0.6602528502825782,0.654551506074222,0.6038332345386288,0.5884263612274553
0.5040222406246303,0.393164535806802,0.3279875144633103,0.5613226059654631,0.7682049250676701,0.3665879997139383,0.5282172108156625,0.61879131597009,0.6572800627225508,0.6521883840905308,0.601495093196338,0.5837251047098043
0.5044362948065776,0.3950447062755912,0.330194010171407,0.559720041862899,0.7657621971347461,0.3686381081789792,0.5264594786641236,0.6179966044142615,0.6581947665871746,0.6528873356631719,0.6028452874925905,0.5841524916659544
0.5125990772506802,0.3988050472131695,0.3313510749939456,0.5545198848770277,0.7689311414801611,0.3712841784071134,0.5302367328621115,0.6233067225372972,0.6638463297507433,0.6592444666333831,0.6086083119278141,0.590990682964356
0.5185732875902047,0.40104036099273,0.331485617415171,0.5511185243328101,0.7721000858255759,0.3726429712269661,0.5310968996596732,0.6262688292453853,0.6673418052334129,0.6643701114994175,0.6131199367713891,0.595563723395162
0.5181592334082574,0.4016879752653129,0.3325350483007292,0.5507260596546311,0.7705816333267314,0.3734773176952967,0.5233927970380343,0.6211754506375754,0.6669497892914312,0.6652021967049425,0.6145030626358426,0.5969313616548423
0.5179817816159944,0.4034010194702097,0.3347953609773161,0.5494505494505495,0.7676767676767676,0.3754559107487664,0.5100415123976215,0.6087851750171586,0.6624416059586423,0.6626060908637044,0.6131199367713891,0.5967176681767672
0.5272092748136756,0.407579176067519,0.3360062427683449,0.5436289900575616,0.7713078497392222,0.3783642041526616,0.4974755974419388,0.5975508434779468,0.6563326908627618,0.6595440173073722,0.6119344003161431,0.5990255577399778
0.5445995504554597,0.4133450321718057,0.3354949815676883,0.5343079539508111,0.7816729385356835,0.3814393668502229,0.4968398219828714,0.598056569013474,0.6561693508869361,0.6609752038608754,0.6143054732266351,0.604581588169929
0.5580858866674554,0.4115902064009359,0.3271264429674677,0.5319531658817374,0.7994982504786425,0.3767193496865241,0.5025244025580613,0.6045587544702525,0.6573127307177159,0.6612414711266433,0.6157544622274912,0.6063766133857594
0.5595055010055602,0.4059705857775549,0.3192153485994134,0.5359432234432235,0.8099293589489667,0.3699969009988319,0.5054040914020719,0.6078098471986418,0.6544706151383489,0.6576468630387751,0.6132516630441941,0.6038550303444739
0.5629362356559802,0.4020013370101111,0.312568952990878,0.5381017791732078,0.8200303690499768,0.3648001144246585,0.5073114177792738,0.6091464075425351,0.6524451994381105,0.6542186719920119,0.6101560956332741,0.6022309599111035
0.5584999408494026,0.3996406785326314,0.3115464305895649,0.5411760858189429,0.8187759952465834,0.3630122291353787,0.5111634690900931,0.6105190911389662,0.6511384796315051,0.6521218172740888,0.607192254495159,0.6007778442601932
0.5514610197562996,0.3992646444388735,0.3142910959825634,0.5434000523286238,0.8115138311216742,0.3640134448973754,0.5142301507161824,0.6113138026947946,0.6492764039070923,0.6507239141288067,0.6058420601989066,0.5988546029575178
0.5452502070270909,0.3968830951784073,0.3140220111401125,0.546997645211931,0.8083448867762593,0.3625354597249041,0.5173342308986874,0.6131922118267529,0.6490803959361015,0.6504909302712597,0.6062701705855233,0.5977861355671426
0.5241925943452028,0.391138129857107,0.3162015983639641,0.5572998430141287,0.7939525978741664,0.3602231280841021,0.5226822244661357,0.6152873604739371,0.6508771356701839,0.6508237643534698,0.6047882500164657,0.5936832207881017
0.5017745179226311,0.3840770452076543,0.3173048462180125,0.5690410779696494,0.7800884663629761,0.3566711959760662,0.5274318411309324,0.6172741393635083,0.6481003560811474,0.6457979697120985,0.5981031416716064,0.5829985468843492
0.4917780669584762,0.3797108715634661,0.3162285068482093,0.5752223966509681,0.7758632072357561,0.3536913871605998,0.5304237256441902,0.6190441787378536,0.6463689523373951,0.6420702279913463,0.5930975433050122,0.5749209334131122
0.496510114752159,0.3782485167544079,0.3121922342114469,0.5750588697017269,0.7834554697299795,0.3510691554029893,0.5372676614682673,0.6245349131235777,0.648263696056973,0.6420369445831253,0.5926365013501943,0.5727839986323618
0.4984029338696321,0.3777889195287039,0.3107391760622124,0.5748953427524857,0.7862943157060804,0.3501871319936113,0.5420546766894798,0.6275692663367409,0.648721047989285,0.6420369445831253,0.5922742540999802,0.5721429181981366
0.4888796876848457,0.3743628311189103,0.3106584506094772,0.5801936159079016,0.7810127417970555,0.3481847004696179,0.5400351546430309,0.6253657479319439,0.6454542484727713,0.6379763687801631,0.5891457551208589,0.5689375160270109
0.4824322725659529,0.3718559371605248,0.3103624572827813,0.5839547357404501,0.7777777777777777,0.3466351998855753,0.535958711993717,0.620380739081747,0.6402927052366796,0.6324846064236977,0.583942567345057,0.5639798273356698
0.4847982964627942,0.372399097518175,0.3099857385033501,0.5828754578754579,0.7795603089720736,0.346754392238194,0.5348741538576611,0.6192970415056172,0.638920649439744,0.6310201364619736,0.5828558255944147,0.5634242242926746
0.4872826215544777,0.3732974011865964,0.3100126469875952,0.5815018315018315,0.7809467221231926,0.3472788385897161,0.5371180672426045,0.6211754506375754,0.6408153931593219,0.6319853553003827,0.5843706777316736,0.5631250534233696
0.4915414645687922,0.3755327149661569,0.310954443936173,0.5785583464154893,0.7821350762527233,0.3489952084674247,0.5399229589737836,0.6249322689014919,0.6440495246806703,0.6348477284073889,0.587499176710795,0.5661167621164203
0.4876375251390039,0.3742165956380044,0.3110351693889083,0.5806514913657771,0.7798904073413876,0.348256215881189,0.5386140094992334,0.6237402015677492,0.6435921727483584,0.6338159427525378,0.5866429559375618,0.5643217369005898
0.4838518869040578,0.3723155343862287,0.3103086403142911,0.5832025117739403,0.7786360335379943,0.3468735845908127,0.5356221249859756,0.6198388902936821,0.6397046813237073,0.6302213346646697,0.582526509912402,0.5597486964697839
0.4829646279427422,0.3726915684799866,0.3111966202943789,0.5831698063840921,0.7770515613652867,0.3474695463539059,0.534350574067841,0.6173463858685837,0.638691973473588,0.6292228324180394,0.5817361522755714,0.5604325155996239
0.4908908079971608,0.3750731177404529,0.3106584506094772,0.5790816326530612,0.782201095926586,0.3485899544685213,0.5381652268222447,0.6226565039916194,0.6438535167096796,0.6336495257114327,0.5862477771191464,0.5660740234208053
0.4923104223352656,0.3770786329071613,0.3125958614751231,0.5771520146520148,0.7805506040800159,0.3505923859925147,0.5491978009648828,0.6345049308239714,0.6542746071673582,0.6413712764187052,0.5902654284397023,0.5681254808103257
0.4820773689814267,0.3754909334001838,0.3152059844468961,0.5812074829931974,0.7716379481085364,0.3508546091682757,0.5599685852126108,0.6466784669291623,0.664042337721734,0.6477284073889166,0.5897385233484819,0.5586374903837935
0.4727315745889033,0.3759087490599147,0.3200226031267659,0.5834641548927264,0.760546642899584,0.3532146177501251,0.5528628594936236,0.6368890654914569,0.6584561105484956,0.6491928773506407,0.5932951327142199,0.5576117616890333
0.4823731219685319,0.3870017548257708,0.3298980168447111,0.5721153846153847,0.7538126361655773,0.3639180910152805,0.5230188114738772,0.6033666871365098,0.6440168566855053,0.6581128307538691,0.6181913982743859,0.5874006325326951
0.5017153673252099,0.4025236065847748,0.3410919462906654,0.5546180010465726,0.7509077705156135,0.3777444039190445,0.4888739294663226,0.5616082072029766,0.6257227793930287,0.6665335330337826,0.6497398406112099,0.6328318659714506
0.5237785401632556,0.4080805548591961,0.3382127384764416,0.5441522762951334,0.7667524922426883,0.3796276430904193,0.4637794981113729,0.5327818516779251,0.6037045506517266,0.6621401231486104,0.6685766976223407,0.6718522950679545
0.5519342245356679,0.4027742959806133,0.3185964534617765,0.5405546834118263,0.8064963359081005,0.3679229540632673,0.4521485470660832,0.5238594083011234,0.5722126033125348,0.6298219337660176,0.651057103339261,0.6854432002735277
0.5678457352419259,0.3995153338347121,0.3071334391733714,0.5386904761904762,0.829405162738496,0.3609621206703378,0.442761509405737,0.5208250550879602,0.5410146679298291,0.5868530537527041,0.6067641441085424,0.6711257372424995
0.572991837217556,0.4135121584356981,0.3228210854882544,0.5263278388278388,0.8130983032943816,0.3759088416887173,0.4182654549534388,0.4924683018458982,0.4945934468001699,0.5473123647861541,0.567114535994204,0.6637319429011027
0.588903347923814,0.4442842817748809,0.3552189005193337,0.4978414442700157,0.782201095926586,0.4078285537199934,0.3683383821384495,0.4335151537044396,0.4483028976511712,0.5397237477117657,0.5785088585918461,0.7031370202581418
0.6075949367088607,0.4714422996573911,0.3816968490164949,0.4714154892726322,0.7601505248564072,0.4350282485875706,0.2981038931897229,0.3460246360582307,0.3624840743523571,0.4937260775503411,0.5577949021932425,0.7291221471920677
0.548740092274932,0.4434277596724325,0.3723865134676963,0.5096153846153847,0.7386941308509936,0.4149324179360653,0.3044616477803957,0.3243145612830979,0.253993662408938,0.363155267099351,0.432885464005796,0.6478758868279341
0.4435703300603336,0.3908038773293223,0.3524473266420903,0.5798665620094192,0.7044959397900574,0.3760757109823834,0.3825498335764239,0.3873857602138497,0.2228937310117278,0.2748543850890331,0.3295791345583876,0.5359859817078383
0.3807523955991956,0.3669883847246594,0.3503753733552189,0.6158751962323391,0.6719482405756915,0.361558082433431,0.4653128389244175,0.4742260593143807,0.295318676292836,0.3149941754035613,0.3463083712046368,0.4989742713052398
0.343191766236839,0.3519470209743461,0.3480612437101418,0.6380494505494506,0.6538588499372813,0.3519511788123674,0.5566401136916116,0.5711808691254561,0.3891084904119434,0.3870527542020303,0.3859909108871764,0.4688007522010428
0.341417248314208,0.3364042784323556,0.328848585959153,0.650673731030874,0.6764375783983627,0.3345967722710911,0.6377575825573133,0.6565039916194054,0.4572539283264186,0.437277417207522,0.416419679905157,0.4554235404735448
0.3408848929374187,0.3281524191526698,0.3184619110405511,0.6572802197802198,0.6888492770845711,0.3252759302963122,0.6579528030218035,0.6824043636889067,0.4858710920910784,0.4655683141953736,0.4389119409866298,0.4554662791691597
0.3547261327339406,0.326209576334921,0.309635928208164,0.6549908424908425,0.707400805440021,0.3202698514863286,0.6485283668050414,0.6809233103348625,0.5049165332723531,0.4877683474787818,0.4586379503391951,0.4602102743824258
0.3828818171063528,0.3276301495780062,0.2986841751204155,0.6460949764521194,0.7365815012873836,0.3162173114972944,0.636598227308426,0.6761550409998915,0.5253013622553984,0.508903311699118,0.4778041230323388,0.4709376869817934
0.416301904649237,0.3355059747639341,0.29362538008234,0.6306907378335951,0.7614048986598005,0.3184819661970488,0.6260144358427765,0.6721092367156739,0.5468295710692235,0.5312697620236312,0.4996706843179872,0.4895717582699376
0.4278362711463386,0.3392454249185259,0.2931948443344186,0.6245748299319729,0.7684029840892586,0.320412882309471,0.6178989491005649,0.6709894158870066,0.5651563163568651,0.5500416042602762,0.516729236646249,0.5035900504316608
0.4404944989944399,0.3442801036182836,0.2939213734090359,0.6171180010465726,0.7746088334323629,0.323607237359651,0.6099704551404317,0.6697973485532638,0.5829603737218647,0.5682809119653852,0.5317460317460317,0.5160270108556287
0.4538033834141725,0.3524901813319963,0.2984419987622098,0.6070447409733125,0.7764573843005215,0.3302820091062957,0.6007330117057482,0.6678466929162302,0.5994577112802588,0.5845897819936761,0.5452809062767568,0.5265834686725361
0.466875665444221,0.3622461769867134,0.3050614858865,0.5957940868655155,0.775599128540305,0.3387923430832678,0.593215901866188,0.6670519813604017,0.6156283688870015,0.60033283408221,0.559046301784891,0.5370117104025985
0.4869277179699515,0.3747179744296816,0.3120038748217313,0.5804552590266876,0.7783059351686802,0.348971369996901,0.5781816821870677,0.6575515659429976,0.6303616347064781,0.6170078216009318,0.5735691233616546,0.552269424737157
0.4944398438424228,0.3832831954541656,0.3196189758630897,0.5716902145473575,0.7731564006073809,0.3572433192686357,0.5558547440068814,0.6397066791893942,0.6402927052366796,0.6306207355633215,0.5857867351643286,0.5663731942901103
0.4947355968295279,0.3849962396590624,0.321690929149961,0.5702838827838829,0.7707796923483198,0.3591265584400105,0.540558734432851,0.6270274175486761,0.6424487929175786,0.6354801131635879,0.591418033326747,0.5700059834173862
0.4939666390630545,0.3851633659229548,0.3222560073191077,0.5703492935635793,0.769657357892652,0.3594841354978664,0.5322188563521448,0.619224795000542,0.6393126653817256,0.6335496754867698,0.590232496871501,0.5670570134199505
0.4944989944398439,0.3865421576000668,0.3237628824368323,0.5691391941391942,0.7680728857199444,0.3609382821998141,0.5301619357492802,0.6158653325145397,0.6381692855509458,0.6333499750374438,0.5889481657116512,0.5667578425506454
0.5017745179226311,0.3898220105289546,0.3247046793854102,0.5645277341705914,0.7709777513699081,0.3632267753700923,0.5315456823366618,0.6173102626160459,0.6422527849465879,0.637111000166417,0.5927682276229994,0.5741943755876571
0.508754288418313,0.3920782150915016,0.3244355945429594,0.5608320251177394,0.775203010497128,0.3643948604257551,0.5353229365346498,0.6217895459307156,0.6478063441246611,0.6429688800133134,0.5981360732398077,0.5816736473202838
0.5070980716905241,0.3902816077546586,0.3228479939724996,0.5627289377289377,0.776259325278933,0.3626784905480464,0.5331164217061222,0.6200195065563703,0.6471529842213584,0.6432684306873023,0.5984983204900218,0.5797076673219933
0.4982254820773689,0.3879627308431519,0.3239512418265479,0.5669806384092099,0.7699214365881031,0.3618441440797159,0.5278806238079211,0.6136618141097424,0.6436901767338539,0.6397736728240971,0.5960613844431272,0.5741943755876571
0.4943215426475808,0.3876075875323807,0.3252428490703118,0.5683542647828362,0.7661583151779229,0.3622017211375718,0.5246269493997532,0.6103384748762779,0.6414687530626246,0.6369778665335329,0.5935585852598301,0.5704761090691511
0.5000591505974211,0.3910127851591877,0.3270188090304873,0.564069858712716,0.7672146299597279,0.3649193067772772,0.5266090728897864,0.6146371419282592,0.6460749403809088,0.6410384423364952,0.5974115787393796,0.5751773655868023
0.5052052525730509,0.3937076961644523,0.3281220568845357,0.5605703819989535,0.7687330824585726,0.3669455767717943,0.5299375444107858,0.6189719322327782,0.6505177877233674,0.6452654351805625,0.601495093196338,0.5812462603641337
0.5028983792736307,0.3918901980446226,0.3268304496407717,0.562630821559393,0.7689971611540237,0.3653483992467043,0.5275814353565953,0.6148177581909475,0.6481983600666428,0.6433017140955233,0.5999143779226767,0.5792802803658432
0.4991718916361055,0.3904905155845241,0.3267497241880365,0.5647566718995292,0.7670825906120022,0.3645140527783737,0.5226822244661357,0.6083878192392443,0.6434288327725328,0.6395739723747711,0.5966541526707503,0.5756047525429524
0.4967467171418431,0.3905114063675107,0.32787988052633,0.5653780743066458,0.7643097643097643,0.3650384991298958,0.5196529413964621,0.6064371636022108,0.6414687530626246,0.6381095024130471,0.5960943160113285,0.5742798529788872
0.5047911983911038,0.3945015459179409,0.3293598471598095,0.5600470957613815,0.7670165709381395,0.367946792533791,0.5216350648864955,0.6097605028356753,0.6450949005259548,0.6424030620735562,0.6001448989000856,0.5789383708009231
0.5146101975629954,0.3979694158937076,0.3293329386755644,0.5546180010465726,0.7724962038687528,0.3699253855872607,0.5248887392946633,0.6138424303724308,0.648263696056973,0.6466966217340655,0.6036027135612199,0.5835968886229593
0.510410505146102,0.397217347706192,0.3303016441083874,0.5563840920983778,0.7689971611540237,0.3699253855872607,0.5227196230225514,0.6127948560488387,0.6476756721440006,0.6456981194874355,0.6022525192649674,0.5818446021027439
0.5010647107535786,0.3937076961644523,0.3300594677501817,0.5617150706436422,0.7640456856143131,0.3678276001811724,0.5174090280115188,0.6058953148141458,0.6418934369997713,0.640073223498086,0.5969176052163604,0.5772715616719378
0.4960369099727907,0.3924542491852594,0.3307052713720637,0.564069858712716,0.7604146035518584,0.3673746692412215,0.5155764987471484,0.602608098833219,0.638201953546111,0.63687801630887,0.5941513534874532,0.5750064108043423
0.5086359872234709,0.3973635831870978,0.3312972580254554,0.5567438513867086,0.7667524922426883,0.3704498319387828,0.5153895059650698,0.6048116172380161,0.639900689294698,0.6396405391912131,0.5977408944213923,0.5783827677579281
0.5116526676919437,0.4010612517757165,0.3346877270403358,0.5530154369440085,0.7642437446359014,0.37407327945839,0.5172968323422716,0.6075931076834159,0.6425467969030741,0.6426027625228822,0.601495093196338,0.5835114112317292
0.510351354548681,0.4010821425587031,0.3353335306622178,0.5533424908424909,0.7627252921370568,0.3743593411046748,0.5160626799805528,0.6059675613192212,0.6414034170722943,0.6403727741720752,0.5998155832180728,0.5861612103598598
0.5008872589613156,0.3976142725829364,0.3351182627882572,0.5587061747776034,0.7577077969234831,0.3722853941691101,0.5096301282770486,0.598164938771087,0.6348698180392669,0.6340822100183058,0.5941842850556543,0.5812462603641337
0.503667337040104,0.3986379209492772,0.3351989882409924,0.5571363160648876,0.759160229748465,0.3729051944027271,0.5048805116122518,0.5927464508904382,0.6304269706968083,0.6299217839906806,0.5897714549166831,0.5761176168903325
0.5086951378208919,0.4028160775465864,0.3383203724134219,0.5524594453165882,0.7581699346405228,0.3766716727454767,0.5057780769662292,0.5944442437597081,0.6312436705759368,0.6311532700948577,0.5919778699861687,0.5805624412342935
0.5081036318466816,0.4059079134285953,0.3425450044398999,0.5502027734170591,0.7526242820360467,0.3803189587356075,0.509031751374397,0.5973702272152585,0.6332690862761752,0.6351472790813779,0.5961272475795297,0.5861612103598598
0.5060333609369454,0.4055736609008106,0.3430562656405565,0.5510204081632654,0.7509077705156135,0.3803427972061313,0.5068626351022851,0.5954556948307625,0.6300022867596615,0.6328507239141288,0.5944477376012646,0.586631336011625
0.498166331479948,0.4031503300743712,0.3435137098727229,0.5551085818942962,0.7458902753020399,0.3791508736799447,0.4992333295934777,0.5854134306252936,0.6211165920747445,0.6245631552670993,0.586313640255549,0.5802205316693735
0.4962735123624749,0.4041113060917523,0.3456125716438393,0.5548796441653585,0.7422591932395853,0.3806526973229397,0.4938853360260294,0.577430191814471,0.6147463330175428,0.6196372108503911,0.583349799117434,0.5776134712368578
0.505086951378209,0.4083521350380212,0.3470656297930737,0.549123495552067,0.7454281375850003,0.3837040215499773,0.4932121620105464,0.577646931329697,0.6134396132109372,0.61993676152438,0.5860172561417375,0.5824429438413541
0.5110611617177333,0.4125929639842901,0.3497833867018271,0.5441522762951334,0.7454281375850003,0.3873274690695845,0.4948950970492539,0.5787306289058267,0.6130475972689556,0.6221001830587451,0.5899031811894883,0.5882981451406103
0.5011830119484207,0.4116110971839224,0.3530393132954821,0.5476517530088959,0.7359213045487554,0.3882094924789626,0.488948726579154,0.5709280063576925,0.6046845905066807,0.6157430520885337,0.5866100243693605,0.5855201299256347
0.487814976931267,0.4095220188852678,0.3564297823103625,0.5529827315541601,0.7243018419489007,0.388519392595771,0.4793746961367292,0.5599104143337066,0.5934468001698736,0.6044932601098353,0.5770928011591913,0.5767586973245576
0.4860996096060571,0.4113604077880839,0.3596049834512822,0.5520342752485611,0.7194163860830527,0.3909747550597153,0.4730169415460564,0.5527941335837879,0.5842670935284702,0.5980695623231818,0.5711651188829613,0.5734250790665869
0.4942032414527387,0.4166875574496532,0.3627263676237118,0.5455913134484563,0.7201426024955436,0.3954087105771294,0.470773028161113,0.5499765198858506,0.5785828623697364,0.5941088367448827,0.5687281828360666,0.5743225916745022
0.4951496510114752,0.4199674103785409,0.3665473723865135,0.542778649921507,0.7159833630421866,0.3989606426851653,0.469015296009574,0.5458584690965574,0.5736499950998007,0.5911798968214345,0.5676743726536257,0.5773143003675528
0.4893528924642139,0.420427007604245,0.3697763904959233,0.5440214547357405,0.70878721859114,0.4006531740923503,0.4615729832828453,0.5363941769316909,0.5643069484825717,0.5848560492594441,0.5627675689916354,0.5751346268911873
0.4784100319413226,0.4199047380295813,0.3740817479751366,0.5474555206698064,0.6974318346867366,0.4022503516174402,0.4515501701634317,0.5249069826247156,0.5504883865277188,0.5727741720752204,0.5524270565764342,0.569364902983161
0.4682952797823258,0.419319796105958,0.3779296612221834,0.5506933542647828,0.6870667458902753,0.4036329829078167,0.4425745166236584,0.5131669255499766,0.5363431446212147,0.5607588617074387,0.5420536125930318,0.5631677921189846
0.4724949721992192,0.4237904236650789,0.3817775744692302,0.5460491889063319,0.684690037631214,0.4078762306610408,0.4400314147873892,0.5069176028609617,0.5289275097187286,0.5551006823098684,0.5389251136139103,0.5660740234208053
0.4717851650301668,0.4265897885852762,0.3857331216532573,0.5440541601255887,0.6794084637221892,0.4112374550048869,0.4376753057331987,0.5029079218292816,0.521838554767894,0.5512065235480113,0.5368833563854312,0.5703051542866912
0.4658109546906424,0.4254825770869892,0.3869709119285311,0.5465724751439037,0.674589027530204,0.4111659395933156,0.4318037323759303,0.4935158761694903,0.5090327006631603,0.5407555333666167,0.5286175327669104,0.5661167621164203
0.4565834614929611,0.4260257374446394,0.3918951645453811,0.5486983254840399,0.663365682973526,0.4136451405277837,0.4225662889412468,0.4809449842863851,0.4942667668485185,0.5282742552837411,0.5186721991701245,0.5595350029917087
0.4488347332308057,0.4269867134620205,0.3966579662567607,0.5501046572475145,0.6531986531986532,0.4163150492264416,0.4143012079733723,0.4714084456164433,0.481003560811473,0.5175569978365784,0.5101099914377922,0.5525258569108471
0.4519697148941204,0.4304545834377872,0.3996986249764551,0.5465070643642074,0.6512180629827689,0.4196285966292403,0.4107483451138786,0.4668207925441607,0.4732612459573356,0.5123315027458811,0.5057959560034249,0.5529532438669972
0.4535076304270674,0.4334001838388903,0.4027931006646396,0.5437925170068028,0.6483131973328051,0.4226799208562778,0.4099255768727327,0.4649062601596648,0.4678056907647578,0.5081045099018139,0.5038200619113482,0.5561586460381229
0.4516148113095943,0.4325018801704687,0.4024971073379437,0.545002616431188,0.6475869809203142,0.4220362821521371,0.405437750102846,0.4582595816927356,0.4582013001862076,0.4991845564985854,0.4974642692485016,0.5529532438669972
0.4463504081391222,0.4300158769950697,0.4016898528105911,0.5484039769754057,0.6456063907044298,0.420272235333381,0.3996409738584091,0.4502402196293754,0.4476822057430336,0.4887002829089698,0.4879470460383323,0.5449611077869904
0.4374778185259671,0.4278641263474554,0.4029814600543551,0.5525248560962847,0.6390704429920115,0.4196047581587165,0.3966490893451513,0.4457248130621681,0.4409199307438503,0.4815443501414544,0.4806033063294474,0.5405590221386444
0.4394889388382823,0.4285535221860114,0.402927643085865,0.5514455782312926,0.640324816795405,0.4199623352165725,0.4003141478738921,0.4488314127804068,0.4405605827970338,0.4812447994674654,0.4797141539880129,0.5421403538763997
0.4426830710990181,0.4281357065262806,0.400963323735974,0.5508895866038723,0.644484056248762,0.4188657655724808,0.4065597067953177,0.4556948307625619,0.4448074221685015,0.4847395573306706,0.4821510900349074,0.5447046756133003
0.4462912575417012,0.4252736692571237,0.3956354438554476,0.5521323914181058,0.6530666138509276,0.4148609025244941,0.4098133812034856,0.4599573745620056,0.4467348338832446,0.4842403062073556,0.4809655535796615,0.5423540473544748
0.4362356559801255,0.4187348541823347,0.3917606221241558,0.5600470957613815,0.652208358090711,0.4094257312450833,0.4108979393395415,0.4619441534515768,0.4471268498252262,0.4815443501414544,0.4768491075545017,0.5337635695358578
0.4410860049686502,0.417523188769115,0.3879934343298442,0.5596219256933543,0.659536541889483,0.4070657226632339,0.4174800852687086,0.4683379691507424,0.4533011009114371,0.4844732900649026,0.4773101495093196,0.530558167364732
0.4508458535431208,0.4157265814322721,0.3812394047843285,0.5583464154892727,0.6732686340529477,0.403060859615247,0.4258199633494147,0.4784524798612867,0.464048871320767,0.492794142120153,0.4818217743528947,0.5313702025814172
0.4577073228439607,0.4155176736024065,0.3778489357694481,0.5566130298273155,0.681190994916485,0.4014160051491096,0.4352817981225925,0.4903009066936387,0.4760380255463722,0.5020136461973705,0.4894618981755911,0.5368834943157536
0.4578256240388028,0.4117364418818417,0.372924683152598,0.5595565149136578,0.6873308245857265,0.3970774035137906,0.4439956617674558,0.5003070476465701,0.4869491359315279,0.5083707771675819,0.4943687018375815,0.5381229164885888
0.4601324973382231,0.4073284866716805,0.3661975620913274,0.5623364730507588,0.6969036772958341,0.3915945552933323,0.4503160178017129,0.5105299281147274,0.4967495344810689,0.5142619404226992,0.4974313376803003,0.5358577656209933
0.4674671714184313,0.4048842650622545,0.3597126173882625,0.562238356881214,0.7089192579388657,0.3873274690695845,0.4569355622872957,0.5194162482389915,0.5078893208323806,0.5223830920286238,0.5017124415464664,0.5361996751859134
0.4769904176032178,0.4042993231386312,0.354626913865942,0.5600470957613815,0.7204727008648576,0.3847290757824978,0.4697632671378885,0.5356355886284001,0.5245499983666003,0.5350640705608254,0.5107356912336165,0.5419693990939397
0.4834969833195315,0.4041321968747389,0.3514786212092672,0.5584118262689691,0.7279329240113553,0.3832510906100265,0.4815812109652568,0.550771231441679,0.5423540557315998,0.5492428024629722,0.5214055193308306,0.547952816480041
0.4869277179699515,0.4020431185760842,0.3471732637300541,0.5590659340659342,0.7351950881362646,0.3801520894419414,0.4886121395714126,0.5604883863743092,0.5551925778314984,0.5591612581128307,0.527629585720872,0.547910077784426
0.487874127528688,0.3982201052895462,0.3418722923337728,0.5618131868131868,0.7421931735657225,0.3756227800424325,0.4928007778899735,0.5658707510024203,0.5637515925647644,0.5662839074721252,0.530823947836396,0.5439781177878451
0.4852123506447415,0.3947731260967661,0.3386163657401179,0.5652472527472527,0.7447019211725092,0.3722138787575389,0.4970268147649501,0.5714698551457573,0.5731599751723238,0.5733067066067565,0.535434367384575,0.5420548764851697
0.4969241689341062,0.3973426924041113,0.3365982294217367,0.5599816849816851,0.7537466164917145,0.3727860020501084,0.5064512509817122,0.5837517610085613,0.5867825291561858,0.5853220169745382,0.545182111572153,0.5487648516967263
0.5084585354312079,0.3989303919110888,0.3333961197965719,0.5555664573521717,0.7641117052881757,0.3722615556985864,0.5131081940237107,0.5946609832749341,0.5994577112802588,0.5977034448327508,0.5549957188961339,0.5567569877767331
0.5073346740802083,0.3976142725829364,0.3322121464897883,0.5569073783359498,0.7649039413745296,0.3709981167608286,0.5161374770933842,0.600476826933497,0.6079513900231943,0.6046929605591612,0.5600671803991306,0.5592358321224036
0.4992901928309476,0.3931854265897885,0.3301401932029169,0.5625981161695448,0.7629233511586453,0.3675415385348876,0.5166236583267886,0.6005490734385724,0.6100748097089282,0.6043601264769513,0.557860765329645,0.5540217112573724
0.5050278007807879,0.3932272081557617,0.3276107956838792,0.5609955520669807,0.769261239849475,0.366444968890796,0.5174464265679345,0.6024636058230682,0.6142236450949005,0.6078216009319354,0.5593426858987025,0.5539362338661424
0.5105879569383651,0.3957549928971338,0.3283373247584963,0.55746336996337,0.7714398890869478,0.3682328541800758,0.5241033696099331,0.6106997074016545,0.6242527196105976,0.6155433516392078,0.5665876309029836,0.5585947516881785
0.515734058913995,0.3969248767443804,0.3275031617468988,0.5551085818942962,0.7753350498448537,0.3685189158263606,0.5308351097647631,0.61879131597009,0.6330730783051844,0.6241637543684473,0.5737996443390635,0.5638088725532097
0.5159115107062582,0.3950447062755912,0.3250006727121061,0.5565476190476191,0.7785039941902687,0.3663257765381773,0.532331052021392,0.6201639995665209,0.6371239097056614,0.6270926942918954,0.5754462227491273,0.5645354303786649
0.5089908908079972,0.391096348291134,0.3230632618464602,0.5615515436944009,0.7770515613652867,0.3632267753700923,0.5281798122592468,0.616045948777228,0.635817189899056,0.6253619570644033,0.5731739445432391,0.5603042995127789
0.5110020111203123,0.3912425837720398,0.322336732771843,0.5608647305075877,0.7790321515811711,0.3629883906648549,0.528030218033584,0.6172380161109707,0.6371239097056614,0.6256947911466133,0.5737337812026608,0.5596632190785538
0.5221814740328877,0.3949193615776719,0.3219869224766569,0.5549123495552069,0.7857001386413149,0.3649431452478009,0.5311716967725046,0.6213560669002638,0.6428734768547255,0.6314195373606257,0.578969900546664,0.5638088725532097
0.5250207027090974,0.3960683546419319,0.3221752818663724,0.5532116692830978,0.787086551792434,0.3656821378340366,0.5357717192116385,0.6264133222555358,0.6470223122406978,0.637343984023964,0.5844365408680761,0.5683819129840157
0.5214125162664143,0.395420740369349,0.322982536393725,0.5547488226059655,0.7841156664686075,0.3656582993635129,0.5348741538576611,0.6281111151248059,0.6488517199699455,0.6398069562323182,0.5863465718237503,0.5706470638516112
0.5189281911747309,0.3943553104370351,0.3227403600355192,0.5562532705389849,0.7829933320129397,0.3649431452478009,0.5336400014959423,0.6250045154065673,0.6473489921923492,0.6384090530870361,0.5844036092998749,0.5664586716813403
0.5131905832248906,0.3931436450238154,0.3237897909210774,0.5588042909471481,0.7785039941902687,0.3647285990130873,0.532069262126482,0.6235957085575986,0.6465322923132207,0.6366783158595439,0.582526509912402,0.5623557569022993
0.5181000828108364,0.3956296481992145,0.3247315878696553,0.5554683411826269,0.7800884663629761,0.3665641612434147,0.5351359437525712,0.6279666221146553,0.6508771356701839,0.639840239640539,0.5853586247777118,0.5652192495085051
0.5251390039039394,0.3967577504804879,0.32300944487797,0.5526556776556777,0.7860962566844919,0.366444968890796,0.5389131979505591,0.6328432612072391,0.6562020188821013,0.6444333499750374,0.5900678390304946,0.5704333703735363
0.526144564060097,0.3955878666332414,0.321045125528079,0.5533097854526426,0.7890671420083184,0.3648954683067534,0.538801002281312,0.6320846729039483,0.6567247068047434,0.6452987185887834,0.5912863070539418,0.5723566116762118
0.5182775346030996,0.3932272081557617,0.3215832952129807,0.5572998430141287,0.7840496467947448,0.3637988986626618,0.5346871610755826,0.6285807174077954,0.6529025513704224,0.6414711266433681,0.5877955608246065,0.5686383451577058
0.5215308174612563,0.3942299657391159,0.3213949358232651,0.5556318681318682,0.7860962566844919,0.3642756680731364,0.531657878005909,0.6255102409420945,0.6509424716605142,0.6393077051090031,0.5861160508463413,0.5656893751602702
0.5224772270199929,0.39523272332247,0.3222560073191077,0.5545852956567242,0.7855680992935894,0.3652292068940857,0.5337147986087738,0.6272441570639021,0.6529678873607527,0.6418039607255783,0.5881248765066193,0.5670142747243355
0.526262865254939,0.3969039859613938,0.3226865430670291,0.5522305075876505,0.7871525714662969,0.3663734534792248,0.5375668499195931,0.6313260846006574,0.6571167227467251,0.6455649858545515,0.5917473490087597,0.5706043251559962
0.5220631728380457,0.3958385560290799,0.3232247127519307,0.5542255363683937,0.7841156664686075,0.3660158764213688,0.537866038370919,0.631795686883647,0.6577047466596976,0.6460309535696455,0.5920437331225713,0.5723138729805967
0.5143144445758903,0.3932689897217348,0.3234399806258913,0.5583791208791209,0.7795603089720736,0.3646332451309924,0.5338269942780209,0.6271719105588267,0.6535885792688902,0.6418705275420202,0.5875321082789962,0.5668005812462604
0.5125399266532592,0.3923080137043536,0.32300944487797,0.5596219256933543,0.7790981712550339,0.3638942525447567,0.5307603126519317,0.6239930643355128,0.6510404756460096,0.6390414378432352,0.5845682671408812,0.5645354303786649
0.5193422453566782,0.3945433274839141,0.3227941770040093,0.5559916274201989,0.7831913910345282,0.3650861760709433,0.5331912188189536,0.6258714734674711,0.6528372153800922,0.6415044100515892,0.5877296976882039,0.5685101290708607
0.5254347568910446,0.3970711122252862,0.3232785297204208,0.5523286237571952,0.7859642173367662,0.3667310305370808,0.5383522196043233,0.631795686883647,0.6581294305968443,0.6480279580629056,0.5945794638740697,0.5751773655868023
0.5211759138767302,0.3954834127183086,0.3231708957834405,0.5547488226059655,0.7837195484254307,0.3657774917161315,0.537866038370919,0.632012426398873,0.6582274345823397,0.6482276585122316,0.5951722321016927,0.573852466022737
0.5173902756417841,0.393164535806802,0.3219331055081668,0.5576268969126114,0.7831253713606654,0.3639180910152805,0.5336400014959423,0.6272441570639021,0.6536212472640555,0.6430021634215343,0.5891457551208589,0.5672707068980255
0.5145510469655743,0.3914514916019052,0.3209913085595889,0.559720041862899,0.7826632336436257,0.3625116212543803,0.5287781891618983,0.6215728064154896,0.6493090719022574,0.6395739723747711,0.5849305143910953,0.5641935208137449
0.5232461847864665,0.395420740369349,0.3221214648978823,0.5542255363683937,0.7861622763583547,0.3652768838351331,0.5321440592393134,0.6254379944370191,0.6519551795106335,0.6425361957064403,0.5887505763024435,0.5678263099410206
0.5317047202176742,0.3989303919110888,0.3227941770040093,0.549123495552067,0.7900574371162605,0.367589215475935,0.5362952990014586,0.6298811544991512,0.6564960308385874,0.6470960226327176,0.5949087795560825,0.5752201042824173
0.5298119011002012,0.3980947605916269,0.3225789091300488,0.550300889586604,0.7892652010299069,0.3670170921833655,0.5371180672426045,0.6308926055702057,0.6572800627225508,0.6471625894491595,0.5942501481920568,0.5742798529788872
0.5179226310185733,0.3934778975516002,0.3220676479293921,0.557201726844584,0.783257410708391,0.364132637249994,0.5321814577957291,0.6258714734674711,0.6519551795106335,0.6412381427858211,0.5878614239610089,0.5679545260278656
0.5170945226546789,0.3924751399682459,0.3211796679493044,0.5582155939298796,0.7838515877731563,0.3631790984290448,0.5285911963798198,0.6221146552035546,0.6491130639312667,0.6376435346979531,0.5840742936178621,0.5643644755962048
0.5194013959540992,0.3940628394752234,0.3221483733821274,0.5563513867085297,0.783983627120882,0.3645140527783737,0.5301619357492802,0.6233067225372972,0.6510731436411747,0.6393077051090031,0.5867746822103669,0.5662877168988802
0.5288654915414646,0.3971546753572323,0.3218254715711864,0.5513147566718996,0.7896613190730837,0.3661350687739875,0.5344627697370883,0.6283639778925695,0.6558753389304499,0.6448327508736894,0.5933280642824211,0.5730404308060518
0.5249024015142553,0.3953580680203894,0.3213142103705299,0.5538003663003663,0.7880768469003763,0.3648954683067534,0.5357717192116385,0.629158689448398,0.6561366828917711,0.6454984190381094,0.5939866956464467,0.5743653303701172
0.5175677274340471,0.3912843653380128,0.319403707989129,0.5590332286760858,0.7862943157060804,0.3617249517270972,0.5294513631773814,0.6221507784560921,0.649472411878083,0.639374271925445,0.5879272870974116,0.5676553551585606
0.5146101975629954,0.3900726999247932,0.3191884401151683,0.5607993197278912,0.7849739222288241,0.3609382821998141,0.5264594786641236,0.6174908788787343,0.644898892554964,0.6360792145115659,0.5845024040044787,0.560859902555774
0.5202295043179936,0.3935196791175733,0.3210720340123241,0.5565476190476191,0.7857661583151778,0.3637273832510906,0.5290399790568084,0.6192609182530795,0.6474796641730097,0.638475619903478,0.58608311927814,0.5633814855970596
0.5246066485271501,0.3956087574162279,0.3217716546026962,0.5537022501308216,0.7873506304878853,0.3652292068940857,0.5340887841729309,0.6241014340931258,0.652575871418771,0.6425361957064403,0.5893762760982678,0.5685101290708607
0.5228912812019402,0.3945015459179409,0.3210989424965692,0.5550431711145997,0.7872185911401597,0.3642995065436601,0.5339391899472681,0.6248600223964166,0.6535885792688902,0.6424030620735562,0.5903312915761049,0.5690657321138559
0.5194605465515202,0.3920991058744882,0.3195920673788446,0.5578885400313972,0.7871525714662969,0.3622493980786193,0.5304985227570216,0.6205974785969729,0.6487863839796153,0.6388084539856882,0.5864124349601528,0.5644072142918198
0.5160889624985212,0.3906367510654299,0.3192691655679036,0.5599489795918368,0.7857001386413149,0.3612720207871463,0.5267960656718651,0.6159014557670772,0.6457155924340924,0.6364120485937759,0.5842060198906671,0.5623557569022993
0.5244291967348871,0.3938957132113311,0.3196458843473347,0.5551085818942962,0.7898593780946721,0.3632982907816634,0.5291895732824714,0.6204168623342846,0.6484597040279638,0.6377433849226161,0.5865112296647566,0.5654756816821951
0.5306991600615166,0.3961519177738781,0.3196997013158249,0.5515763997906856,0.7932924011355382,0.3646332451309924,0.5332286173753693,0.6257269804573204,0.6519551795106335,0.6405059078049592,0.5896726602120793,0.5691939482007009
0.5264994676446232,0.3944179827859948,0.3193767995048839,0.5540947148090005,0.7913778305935167,0.3634889985458533,0.5338269942780209,0.6257631037098581,0.652053183496129,0.6403727741720752,0.5899361127576895,0.569322164287546
0.5169170708624157,0.3906994234143895,0.3189462637569626,0.5596873364730508,0.7864923747276688,0.3611766669050514,0.5294139646209657,0.6212476971426508,0.6481330240763125,0.6362123481444499,0.5864782980965554,0.5646209077698949
0.5136637880042588,0.3903024985376451,0.3199149691897855,0.5608647305075877,0.7835214894038424,0.3613912131397649,0.5278806238079211,0.6189719322327782,0.6450949005259548,0.6338159427525378,0.5838437726404532,0.5603897769040089
0.522654678812256,0.3930600818918692,0.3193767995048839,0.5562532705389849,0.789199181356044,0.3627261674890939,0.52937656606455,0.6198388902936821,0.6465322923132207,0.6352138458978198,0.5855891457551208,0.5633814855970596
0.5308766118537798,0.3962563716888108,0.3197535182843151,0.5514782836211408,0.7933584208094011,0.3647047605425635,0.5344627697370883,0.62449878987104,0.651857175525138,0.6402396405391911,0.5901995653032998,0.569450380374391
0.526026262865255,0.3937494777304253,0.3187040873987568,0.5547488226059655,0.7919059879844192,0.3628215213711888,0.5335278058266951,0.6236318318101363,0.6503544477475418,0.6394741221501081,0.5888823025752487,0.5677835712454056
0.5196379983437833,0.391597727082811,0.3188655383042273,0.5582155939298796,0.788142866574239,0.361653436315526,0.5287781891618983,0.6188996857277029,0.6459116004050832,0.635646530204693,0.5856220773233222,0.5624412342935294
0.5136637880042588,0.3902607169716721,0.3198611522212954,0.5609301412872841,0.783587509077705,0.3613435361987175,0.5257115075358092,0.615720839504389,0.6430041488353859,0.6325178898319187,0.5838767042086543,0.5585520129925635
0.5206435584999408,0.3921617782234477,0.3191346231466782,0.5574960753532183,0.7883409255958276,0.3620825287849532,0.5292643703953028,0.6185023299497886,0.6454215804776061,0.6349808620402728,0.586675887505763,0.5616719377724593
0.5331834851532001,0.3956923205481741,0.3179775583241396,0.5512820512820514,0.7967914438502673,0.3635843524279483,0.5352481394218184,0.6251128851641803,0.6512364836170005,0.6411715759693792,0.592834090759402,0.5685101290708607
0.5360227138294097,0.3963608256037436,0.3175470225762183,0.5499411302982732,0.7989040734138773,0.3637988986626618,0.5353977336474812,0.6264494455080736,0.6519551795106335,0.6416708270926943,0.5930975433050122,0.5688520386357808
0.5221223234354667,0.3928093924960307,0.3192960740521486,0.5565803244374674,0.7890011223344556,0.3625354597249041,0.5306855155391003,0.6196943972835315,0.6454542484727713,0.636112497919787,0.5873345188697886,0.5611163347294641
0.5188690405773099,0.3918901980446226,0.3195920673788446,0.5581828885400314,0.7868224730969828,0.3621540441965243,0.5279180223643367,0.6165155510602174,0.6425794648982392,0.6325178898319187,0.583349799117434,0.5576545003846484
0.5247841003194132,0.3929974095429096,0.3183273686193257,0.5556972789115646,0.7917079289628308,0.3622017211375718,0.5298253487415386,0.6188996857277029,0.6440168566855053,0.6334165418538857,0.5844365408680761,0.560603470382084
0.5329468827635159,0.3953998495863625,0.3177084734816888,0.5515436944008373,0.7969895028718558,0.3633221292521872,0.5324058491342235,0.6232705992847596,0.6488190519747803,0.6374438342486269,0.5891128235526576,0.5666296264638003
0.5345439488938839,0.3966741873485417,0.3186233619460216,0.5501046572475145,0.7967914438502673,0.3644425373668025,0.5351733423089869,0.6258714734674711,0.6515631635686518,0.6396738225994342,0.5913851017585458,0.569279425591931
0.5283922867620963,0.3968204228294475,0.3216102036972257,0.5517072213500785,0.7896613190730837,0.3658490071277027,0.5286285949362355,0.6194415345157678,0.6494070758877528,0.6382759194541521,0.5892445498254627,0.5661167621164203
0.5253164556962026,0.3995362246176986,0.3265344563140758,0.5504317111459969,0.7819370172311348,0.3695678085294048,0.5259358988743035,0.616045948777228,0.6488517199699455,0.6372774172075221,0.5878943555292103,0.5644926916830499
0.5345439488938839,0.4053856438539316,0.329844199876221,0.5433019361590791,0.7829933320129397,0.3743831795751984,0.5263846815512921,0.6166961673229058,0.6534905752833949,0.6418372441337992,0.5927352960547981,0.5709462347209163
0.5424701289483024,0.4093548926213755,0.3313510749939456,0.538003663003663,0.7855680992935894,0.3773153114496174,0.5296757545158757,0.6198388902936821,0.6600241743164222,0.6486270594108836,0.5984983204900218,0.5785537225403882
0.5427067313379865,0.4092922202724157,0.33116271560423,0.5379709576138149,0.7859642173367662,0.3771961190969987,0.5312090953289204,0.6233789690423727,0.6626049459344681,0.6510900316192377,0.6004083514456959,0.5814599538422087
0.5436531408967231,0.4074747221525863,0.3283911417269865,0.5391483516483516,0.7898593780946721,0.3749314643972442,0.5256741089793935,0.6189719322327782,0.658521446538826,0.6473955733067065,0.5979384838306,0.5775707325412429
0.5352537560629363,0.406659981616111,0.3311896240884751,0.5420918367346939,0.7817389582095463,0.3757181339245274,0.5171846366730245,0.612650363038688,0.6551239750416518,0.6455982692627725,0.5962919054205361,0.5726130438499017
0.5419969241689342,0.4132823598228461,0.3366251379059818,0.5350601779173207,0.7788340925595826,0.3818922977901737,0.512809005572385,0.6103384748762779,0.6593054784227893,0.6508903311699118,0.6022195876967662,0.5801777929737585
0.5615757719152964,0.4214506559705857,0.3382396469606867,0.5232535321821036,0.787812768204925,0.3872559536580133,0.5053292942892404,0.6063287938445978,0.6607428702100553,0.655383591279747,0.6087400382006192,0.590734250790666
0.5683780906187152,0.4242082393248098,0.338670182708608,0.5192307692307693,0.7910477322242028,0.3890200004767694,0.4981487714574217,0.6005490734385724,0.6571820587370553,0.6551838908304211,0.6102219587696767,0.5944525173091718
0.5717496746717142,0.4208030416980028,0.332777224658935,0.5209314495028782,0.8001584472172706,0.3844668526067367,0.4955308725083212,0.597731459740635,0.650158439776551,0.6489931769013146,0.6051834288348812,0.5888110094879905
0.5823967822075004,0.4176485334670343,0.3238705163738127,0.5204735740450027,0.8170594837261503,0.3787217812105176,0.4952316840569954,0.5973702272152585,0.6455849204534319,0.6433017140955233,0.5999802410590792,0.5836823660141892
0.5887258961315509,0.417063591543411,0.3202378710007266,0.519198063840921,0.8250478642635505,0.3767908650980953,0.5038707505890273,0.6065455333598238,0.6493090719022574,0.6451655849558994,0.6016597510373445,0.5870587229677751
0.5932213415355496,0.4148909501128102,0.3153943438366117,0.5196232339089482,0.8334323628441275,0.3734058022837255,0.5129959983544635,0.6157569627569266,0.6541439351866976,0.6486603428191046,0.6050187709938747,0.5926147533977263
0.5859458180527624,0.4122378206735188,0.3152867098996313,0.523711407639979,0.8295372020862216,0.371856301699683,0.5159130857548899,0.6162626882924538,0.6529678873607527,0.6464969212847396,0.6043272080616479,0.5930421403538764
0.5734058913995032,0.4074538313695997,0.314829265667465,0.5309392987964417,0.823133293721529,0.368924169825264,0.5102659037361158,0.6077014774410289,0.6445068766129822,0.6383424862705941,0.5973127840347757,0.5841097529703394
0.5524665799124572,0.402648951282694,0.3181659177138552,0.5404892726321298,0.8073545916683171,0.3676607308875063,0.5115000560978347,0.6054618357836941,0.64277547286923,0.636811449492428,0.5943489428966607,0.5776989486280879
0.5413462675973028,0.399703350881591,0.319430616473374,0.5458529565672423,0.7995642701525054,0.3665403227728909,0.522233441789147,0.6147093884333346,0.6475450001633399,0.6395739723747711,0.5942172166238556,0.5745362851525772
0.5386844907133562,0.3964443887356898,0.3164437747221699,0.5491562009419153,0.8017429193899781,0.3633459677227109,0.5326302404727178,0.62449878987104,0.651857175525138,0.6424030620735562,0.5951722321016927,0.573724249935892
0.533124334555779,0.3908874404612684,0.3118155154320157,0.5550431711145997,0.8043176866706278,0.3581253426780137,0.5391749878454692,0.6301701405194523,0.6517265035444776,0.6402063571309701,0.592241322531779,0.5683819129840157
0.5189873417721519,0.3842441714715467,0.3096897451766542,0.5641679748822607,0.7990361127616029,0.353405325514315,0.5371554657990202,0.6258714734674711,0.6440495246806703,0.6319187884839407,0.5825923730488046,0.556543294298658
0.5188098899798889,0.383909918943762,0.3093399348814682,0.5644623233908949,0.7993662111309169,0.353047748456459,0.5326676390291335,0.6205613553444352,0.6389859854300742,0.6267265768014644,0.5759072647039452,0.5494486708265663
0.5257305098781497,0.3860616695913763,0.308963216102037,0.5608647305075877,0.8036574899319997,0.3541204796300269,0.5345749654063354,0.6217172994256404,0.6388879814445788,0.6262273256781493,0.5755779490219324,0.5505171382169417
0.5251981545013605,0.3865839391660399,0.3098781045663698,0.5606030873888017,0.8022710767808806,0.3548117952752151,0.5374172556939303,0.6250045154065673,0.6419261049949365,0.6285571642536195,0.5778172956596193,0.5519275151722369
0.5229504317993613,0.3851842567059413,0.3090977585232624,0.5623037676609105,0.8020069980854294,0.353667548690076,0.5392871835147164,0.6267384315283748,0.6430368168305511,0.6290231319687135,0.5783771323190411,0.5535088469099924
0.5150242517449427,0.3827191443135289,0.3095282942711838,0.5664246467817897,0.7970555225457187,0.3524517866933658,0.5359961105501329,0.6226203807390818,0.6395086733527163,0.6263937427192544,0.5748534545215043,0.5495341482177964
0.5151425529397847,0.3820715300409459,0.308640314291096,0.5669152276295134,0.7981778570013863,0.3516889556366063,0.530573319869853,0.6194776577683055,0.6353925059619092,0.6230986853053753,0.5718237502469867,0.5467133943072058
0.5213533656689933,0.3838054650288293,0.3080483276377042,0.5638409209837782,0.8023370964547434,0.352427948222842,0.5345001682935039,0.621753422678178,0.6378752735944596,0.6247961391246464,0.5738325759072647,0.5494486708265663
0.5249024015142553,0.3868973009108382,0.3104162742512714,0.5604395604395606,0.8014128210206641,0.3552170492741186,0.5383148210479076,0.6259437199725464,0.6435921727483584,0.6311199866866366,0.5801883685701114,0.5561159073425079
0.5303442564769904,0.3879836216261385,0.3093668433657132,0.5580847723704868,0.8057701194956096,0.3553839185677847,0.5385392123864019,0.6273886500740528,0.6454215804776061,0.6330837077716758,0.5822630573667918,0.5587657064706385
0.5214716668638354,0.3839517005097351,0.3081828700589296,0.5637100994243852,0.8022710767808806,0.3525471405754606,0.5386888066120648,0.6266661850232995,0.6456175884485968,0.6298552171742385,0.5766317592043734,0.551585605607317
0.5072163728853661,0.3804629397509818,0.3101740978930657,0.5703492935635793,0.7919059879844192,0.351450570931369,0.5468042933542766,0.6342159448036702,0.6530332233510829,0.6331502745881177,0.5729763551340316,0.5412855799640995
0.5063291139240507,0.3852678198378875,0.3167666765331109,0.5668498168498168,0.7833234303822538,0.3571002884454933,0.554022214742511,0.6388758443810281,0.6577047466596976,0.6416708270926943,0.5813409734571561,0.5427386956150099
0.5263811664497812,0.3996615693156179,0.3262115545031349,0.5500392464678179,0.782927312339077,0.3694962931178335,0.5349489509704926,0.6192609182530795,0.6509424716605142,0.6575137294058911,0.6116380162023315,0.5747072399350373
0.5346622500887259,0.4121124759755996,0.3384818233188925,0.538003663003663,0.7724962038687528,0.3820353286133161,0.4990089382549834,0.577321822056858,0.6317990264937441,0.6685638209352638,0.6454587367450437,0.6162492520728269
0.5421152253637762,0.4178783320798863,0.3424911874714098,0.5314298796441653,0.7717039677823991,0.3871129228348709,0.4643778750140245,0.5367915327096052,0.6043579105550293,0.6653353303378265,0.668708423895146,0.6544576459526456
0.5619898260972436,0.4152252026405949,0.3300325592659365,0.5279958137100995,0.7981118373275236,0.3800805740303702,0.4427989079621526,0.5175378391070332,0.5689131358008559,0.635646530204693,0.66031087400382,0.674245662022395
0.5973618833550218,0.4182125846076711,0.317789198934424,0.515894819466248,0.8328381857793622,0.3763617726286681,0.440330603238715,0.5213307806234874,0.5469275750547189,0.6017307372274919,0.6294869261674241,0.6786904863663561
0.6153436649710162,0.4346118492521099,0.3307321798563087,0.4980703819989535,0.8270284544794348,0.39145152447019,0.427540296944538,0.5072788353863382,0.5129855280781419,0.5672491263105341,0.592834090759402,0.6802718181041115
0.6215544777002248,0.4599314782318041,0.3604929634313699,0.4765502354788069,0.7939525978741664,0.4190803118071945,0.3803433187478963,0.4543221471661308,0.4686223906438862,0.5541021800632384,0.5952710268062965,0.7121121463372938
0.6284750975984857,0.4844990390239826,0.3890159567311573,0.4553898482469911,0.7627913118109196,0.4457317218527259,0.3021055387262051,0.3633999205288444,0.3890431544216132,0.5170577467132634,0.5844036092998749,0.7429694845713309
0.5896723056902875,0.4686638255201805,0.3862712913381589,0.47854526425955,0.7445038621509209,0.4354811795275215,0.2832192677362654,0.319763031463353,0.2722877397014145,0.3859544017307372,0.4698346835276296,0.6884776476621933
0.4966284159470011,0.4199047380295813,0.3657939348276512,0.5424188906331765,0.7177658942364824,0.3986030656273093,0.3587643516960245,0.3767294007152404,0.2210643232824801,0.2660009985022465,0.3361983797668445,0.5712026668946064
0.4417958121377026,0.3912634745550263,0.3538465678228346,0.5799973835688121,0.7017891331616821,0.3769577343917614,0.4481095029731853,0.468265722645667,0.282904838130084,0.2880346147445498,0.3325759072647039,0.5202581417215146
0.3925233644859813,0.3694117155510988,0.3481150606786319,0.6107077446363162,0.6813230342642107,0.3619394979618108,0.5322188563521448,0.5562619658274031,0.3733625167423476,0.3601264769512398,0.3692946058091287,0.4752542952389093
0.3756654442209866,0.3464109634829113,0.3261577375346447,0.6333725798011512,0.6988842675117185,0.3391022432000763,0.6069785706271739,0.6349022866018857,0.443010682434419,0.4107172574471626,0.3938286241190806,0.4398666552696811
0.381521353365669,0.3375323807136291,0.3120576917902214,0.6387035583464156,0.7194163860830527,0.3278028081718277,0.634167321141404,0.6682801719466821,0.4761686975270328,0.4430687302379763,0.416880721859975,0.434609795709035
0.398970779604874,0.3389738447397007,0.3059494658665878,0.6327511773940345,0.7366475209612464,0.3259195690004529,0.634690900931224,0.6774193548387096,0.5019764137074908,0.47475453486437,0.4441151287624317,0.4462774596119326
0.4294924878741276,0.3414389571321132,0.2952398891370449,0.6223835688121403,0.7668185119165511,0.3225821831271305,0.632147799094955,0.683307445002348,0.5302342295253342,0.5058079547345647,0.4709872884146743,0.464997008291307
0.4533301786348042,0.3436324893457006,0.2872480693162554,0.6141091051805339,0.789925397768535,0.3202698514863286,0.6238827181270804,0.6810316800924756,0.5499003626147464,0.528007988017973,0.4917341763814793,0.4809385417557056
0.4623210694428013,0.3434653630818082,0.2829427118370423,0.61175431711146,0.8002244668911335,0.3182674199623352,0.6107184262687461,0.6727955785138894,0.5599947731207736,0.5396904643035446,0.501778304682869,0.4860671852295068
0.4741511889270082,0.3486462772624717,0.2842074105965611,0.6043956043956044,0.80530798177857,0.3217955135998474,0.6006956131493325,0.6665823790774121,0.5740746790369475,0.5546347145947744,0.5146216162813674,0.4953414821779639
0.4926653259197918,0.3612225286203727,0.292010871027635,0.5894492412349556,0.8060341981910608,0.3324274714534315,0.5971053517334232,0.6689303904923599,0.5941981640586718,0.5758362456315527,0.5332938154514918,0.5101290708607573
0.50686146930084,0.3722319712542826,0.2997336060059737,0.5768903715332288,0.8045157456922162,0.3421297289565901,0.5947118441228169,0.6722537297258245,0.6157917088628272,0.5973706107505408,0.5523282618718304,0.5264979912813061
0.5118301194842069,0.3786245508481658,0.305707289508382,0.5705128205128206,0.7999603881956823,0.3484230851748552,0.5801638056771009,0.6615251237221399,0.6283035510110745,0.6114494924280245,0.5663241783573734,0.539319599965809
0.5125399266532592,0.3842441714715467,0.3126227699593682,0.5659340659340659,0.7918399683105565,0.3546926029225964,0.5509929316728375,0.6362749701983167,0.6318970304792395,0.618705275420203,0.5735691233616546,0.5464997008291307
0.5143144445758903,0.3889237068605332,0.3178699243871593,0.5617804814233386,0.7863603353799432,0.3596748432620563,0.5335652043831108,0.6188274392226276,0.6322890464212212,0.6225994341820602,0.5769281433181848,0.5490640225660314
0.5178043298237313,0.3910127851591877,0.3189462637569626,0.5591640502354789,0.7870205321185713,0.3613673746692412,0.5298253487415386,0.6162265650399162,0.6340857861553036,0.6262273256781493,0.5799907791609036,0.5507308316950167
0.5289246421388856,0.3947522353137795,0.3187040873987568,0.5531789638932497,0.7934904601571267,0.3633936446637584,0.5321440592393134,0.6199472600512951,0.6402273692463494,0.6323181893825928,0.5859843245735362,0.5587657064706385
0.5280373831775701,0.3948984707946854,0.3193229825363938,0.5533097854526426,0.7922360863537334,0.3637512217216144,0.5304985227570216,0.6185023299497886,0.6418934369997713,0.6353136961224829,0.5882236712112231,0.5619283699461493
0.5221814740328877,0.3926840477981115,0.3191077146624331,0.5566457352171639,0.7892652010299069,0.3623924289017616,0.5269830584539438,0.6144926489181086,0.6385939694880925,0.6333832584456648,0.5851610353685043,0.5576545003846484
0.5166213178753105,0.3918693072616361,0.3205876812959126,0.5588369963369964,0.7843797451640588,0.3625592981954277,0.5227944201353828,0.6099049958458259,0.635817189899056,0.6303544682975537,0.5823618520713957,0.5536798016924525
0.5302851058795695,0.3964234979527032,0.3202378710007266,0.5514782836211408,0.7924341453753218,0.3650146606593721,0.5219342533378212,0.6101939818661273,0.6372545816863219,0.6324513230154767,0.5842389514588685,0.556500555603043
0.5369691233881463,0.4008314531628645,0.3228749024567446,0.5461800104657247,0.7928962830923615,0.3687096235905505,0.5250757320767419,0.614239786150345,0.6417954330142759,0.638475619903478,0.5903642231443061,0.5644072142918198
0.5352537560629363,0.400622545332999,0.3233861636574012,0.5468341182626898,0.7913118109196541,0.3688049774726453,0.5259732974307192,0.6154318534840877,0.643722844729019,0.6415709768680313,0.5939866956464467,0.5662449782032652
0.5275050278007808,0.3986797025152502,0.3244086860587143,0.5504971219256933,0.7857001386413149,0.3681375002979809,0.5212610793223382,0.6109886934219557,0.6408807291496521,0.6390414378432352,0.5924059803727854,0.5626121890759894
0.5236010883709925,0.3971546753572323,0.3242203266689987,0.5527864992150707,0.7837855680992935,0.3672077999475553,0.5164740641011257,0.6050644800057797,0.6361438698507073,0.6346147445498419,0.5886188500296384,0.5578254551671084
0.527800780787886,0.3993899891367928,0.3251890321018217,0.5498757195185767,0.7849079025549613,0.3689003313547403,0.5170350424473615,0.6058230683090706,0.6368298977491752,0.6354468297553668,0.5901337021668972,0.5613727669031542
0.536377617413936,0.4018133199632322,0.3244086860587143,0.5455913134484563,0.7906516141810258,0.3699492240577844,0.5221960432327313,0.6118195282303219,0.6422527849465879,0.6397736728240971,0.5947111901468748,0.5699205060261561
0.5366733704010411,0.4017715383972591,0.3242203266689987,0.5455586080586081,0.7910477322242028,0.3698300317051658,0.5224952316840571,0.6121807607556985,0.6423181209369182,0.6397071060076551,0.5949417111242837,0.5709889734165313
0.533242635750621,0.4003718559371605,0.323978150310793,0.5475863422291994,0.7894632600514953,0.368924169825264,0.5185683832604062,0.6079543402087925,0.6385939694880925,0.6364120485937759,0.5924059803727854,0.5676980938541756
0.5280373831775701,0.3998078047965237,0.3256464763339881,0.5494832548403977,0.7845117845117845,0.3693294238241674,0.5132203896929579,0.6031138243687462,0.6335957662278267,0.6324846064236977,0.589639728643878,0.5635524403795197
0.5342481959067786,0.4027951867635999,0.3266420902510561,0.5453950811093669,0.7867564534231201,0.371498724641827,0.5122480272261491,0.6027525918433696,0.6337917741988175,0.6340489266100848,0.5914509648949483,0.5654756816821951
0.5398083520643558,0.4062839475223531,0.3286064096009471,0.5411433804290948,0.7874166501617482,0.3743593411046748,0.5168106511088673,0.6071235054004263,0.6387899774590834,0.6380429355966051,0.595567410920108,0.5712454055902214
0.5373831775700935,0.4060332581265145,0.3293867556440546,0.5419937205651492,0.7851059615765498,0.3745500488688645,0.5169228467781144,0.6072318751580392,0.6385939694880925,0.637477117656848,0.5956332740565106,0.5722711342849817
0.5300485034898852,0.4032130024233308,0.3290907623173587,0.5462454212454213,0.7814088598402323,0.3728098405206322,0.5118740416619919,0.6009464292164868,0.6328444023390285,0.6324513230154767,0.5912863070539418,0.5675698777673306
0.5270909736188335,0.4041739784407119,0.3317008852891316,0.5463108320251178,0.7765894236482471,0.3745023719278171,0.5076106062305995,0.5961420366289781,0.6293489268563589,0.6289565651522716,0.5893104129618653,0.5647063851611249
0.5343664971016208,0.4069733433609091,0.3319699701315824,0.5420918367346939,0.7802865253845646,0.3762425802760495,0.5085455701409926,0.5966116389119677,0.6298062787886708,0.6290896987851556,0.5903312915761049,0.5690229934182409
0.5406364604282503,0.4094802373192947,0.3323466889110136,0.538396127681842,0.7833234303822538,0.3778397578011395,0.512135831556902,0.6005129501860348,0.632256378426056,0.6319187884839407,0.5929658170322071,0.5745362851525772
0.5398083520643558,0.4109008105623798,0.3345531846191104,0.5375130821559394,0.7801544860368389,0.3796276430904193,0.5119114402184076,0.5998988548928946,0.6308516546339552,0.6311865535030787,0.5922742540999802,0.5753055816736474
0.5328285815686739,0.4090415308765772,0.3353335306622178,0.5409144427001571,0.7752690301709909,0.3788886505041837,0.5054788885149033,0.5928186973955136,0.623893371663781,0.6258612081877184,0.5873674504379899,0.569279425591931
0.5263220158523602,0.4067853263140302,0.335387347630708,0.5444793301936159,0.7715719284346735,0.3776490500369496,0.4975503945547702,0.5852328143626052,0.6159550488386528,0.619537360625728,0.5814726997299611,0.5635951790751347
0.5288063409440436,0.4097518174981198,0.3380781960552163,0.5414704343275772,0.7697233775665148,0.3805096664997974,0.4958674595160627,0.5828486796951198,0.6131782692496163,0.618738558828424,0.581571494434565,0.5665014103769553
0.5357861114397255,0.415266984206568,0.3420337432392433,0.535223704866562,0.7687330824585726,0.385420391427686,0.4980739743445903,0.5845103493118521,0.6145503250465519,0.6205025794641371,0.5846011987090826,0.5713308829814514
0.5350763042706731,0.4175858611180747,0.3453165783171434,0.5335884353741497,0.7643097643097643,0.3882094924789626,0.4970642133213658,0.583137665715421,0.6122308973898273,0.6185388583790979,0.5831851412764276,0.5723993503718267
0.5266769194368863,0.4151416395086488,0.3459892904232705,0.5378401360544218,0.7587641117052881,0.3870890843643472,0.4902202774972886,0.5746487013690712,0.6032798667145798,0.6100515892827424,0.5760389909767504,0.5676980938541756
0.5183366852005205,0.4134077045207655,0.3475499825094852,0.5415031397174255,0.7522281639928698,0.3868030227180624,0.4827779647705599,0.5659429975074955,0.5942961680441672,0.601198202695956,0.5693538826318909,0.56509103342166
0.5238968413580977,0.4164577588368012,0.3489492236902295,0.5375784929356359,0.7536145771439888,0.3891630312999117,0.4799730730393807,0.5635227395874725,0.5897553167162132,0.5975037443834248,0.5661924520845683,0.5655611590734251
0.5306991600615166,0.4213253112726665,0.3521244248311492,0.5318877551020408,0.753548557470126,0.3933347636415648,0.4792251019110662,0.5615359606979012,0.5857371533109014,0.5957397237477117,0.5665546993347823,0.5700059834173862
0.5221814740328877,0.4218893624133032,0.3566988671528133,0.5337846677132392,0.7431834686736647,0.3956947722234142,0.4750364635925054,0.5557923635444135,0.5783868543987456,0.5909801963721085,0.5636896529012712,0.5683819129840157
0.5146693481604164,0.4218475808473301,0.3600893361676937,0.5359105180533753,0.7347989700930877,0.3971727573958855,0.4662478028348106,0.5452082505508796,0.5672797360425992,0.581261441171576,0.5568069551472041,0.5637233951619797
0.510233053353839,0.4227876660817247,0.3633183542771036,0.5364010989010989,0.728395061728395,0.3991275119788314,0.4573843449642844,0.5348408770725717,0.5540818659958838,0.5688134464969212,0.5476519791872488,0.5584665356013334
0.5084585354312079,0.426088409793599,0.368377149315179,0.5343079539508111,0.7211328976034858,0.4032515673794369,0.453532293653465,0.5287360473937074,0.5450981673254712,0.5612248294225328,0.5428110386616611,0.5592785708180187
0.5127173784455223,0.4310813069273836,0.3728708661841078,0.5292059131344846,0.7180299729319337,0.4080907768957544,0.4511387860428588,0.524654119856952,0.5377805364084807,0.5561657513729406,0.5398471975235462,0.5610308573382341
0.5105879569383651,0.4333584022729171,0.3767725963996448,0.5280285190999476,0.7120221826104178,0.411142101122792,0.4464639664908935,0.5176823321171838,0.5282741498154259,0.5484772840738892,0.5351050517025621,0.5592785708180187
0.4942623920501597,0.4313111055402356,0.3815353981110244,0.5341444270015698,0.6971017363174224,0.4120718014732175,0.4366655447099742,0.5061951378102085,0.5134428800104538,0.5349975037443834,0.5250938549693737,0.5528250277801522
0.4860404590086359,0.4300785493440294,0.3837418938191212,0.5373822605965464,0.6898395721925134,0.4123340246489785,0.4268297243726393,0.4931907668966514,0.4978929143118487,0.5209186220668995,0.5141605743265494,0.5452175399606805
0.4852715012421626,0.4328361326982535,0.387616715550413,0.5354199372056515,0.6846240179573512,0.4156237335812534,0.4213695351359438,0.4865079651771846,0.4870798079121884,0.5121983691129971,0.5078047816637029,0.5444055047439952
0.4925470247249497,0.4383095178407286,0.3913569948604795,0.529140502354788,0.6840958605664488,0.4204152661565233,0.4191630203074162,0.4825344073980421,0.480056188951684,0.5067731735729738,0.5060264769808338,0.5491922386528764
0.4899443984384242,0.4386228795855268,0.3929715039151845,0.5295983778126635,0.6806628375255825,0.4213211280364252,0.4157597516735854,0.4769714265072427,0.4703537943876384,0.4991179896821434,0.5005598366594217,0.547739123001966
0.4787057849284278,0.4368471630316704,0.3957699862766731,0.5341117216117217,0.6709579454677493,0.4215356742711388,0.4061857212311605,0.4661344507459452,0.4567965763941067,0.4867032784157097,0.4900875979714154,0.5392768612701941
0.4702472494972199,0.4361159856271412,0.398676102575142,0.5370225013082156,0.662705486234898,0.422393859209993,0.3992295897378362,0.4570675143589929,0.4440233902845382,0.4747212514561491,0.4801093328064282,0.5323531925805625
0.472140068614693,0.4383930809726749,0.4007480558620133,0.5347331240188383,0.6611870337360533,0.4246108369687001,0.3988182056172631,0.4554419679947983,0.4387638430629513,0.4692627725079047,0.4765527234406903,0.5317548508419523
0.4753342008754289,0.4390824768112308,0.4001829776928666,0.5332940868655155,0.6636957813428401,0.4247538677918425,0.4016604959048581,0.4591626630061771,0.4385351670967953,0.4694957563654518,0.4779029177369426,0.5360287204034534
0.4733822311605348,0.4376410127851591,0.3992142722600436,0.534962061747776,0.6637618010167029,0.4235142673246084,0.4009499233329594,0.4584401979554239,0.4371631112998596,0.4681644200366117,0.4764209971678851,0.5362424138815284
0.4683544303797469,0.4335673101027826,0.3962543389930845,0.5395408163265307,0.6645540371030566,0.4198669813344776,0.3991921911814204,0.4548278727016581,0.4321322400444284,0.4619404226992843,0.4701639992096424,0.5296606547568169
0.4623802200402224,0.4298487507311774,0.3941823857062132,0.5441195709052852,0.6638278206905658,0.4168394955779637,0.4003515464303078,0.4540692843983672,0.4287674365424194,0.4571808953236811,0.4655865112296647,0.5233780665014104
0.4671122678339052,0.4286997576669173,0.3905497403331271,0.543694400837258,0.6708919257938865,0.4145748408782093,0.4054003515464303,0.459379402521403,0.4329489399235569,0.4590780495922782,0.4666403214121056,0.5232925891101804
0.4771678693954809,0.4293891535054733,0.3868363695073056,0.5403911564625851,0.6810589555687594,0.4133114019404514,0.4164329256890684,0.4708304735758408,0.444186730260364,0.4678981527708437,0.4727985246657445,0.5277374134541414
0.4764580622264285,0.4254825770869892,0.3821542932486613,0.5436289900575616,0.6864065491516471,0.4090204772461798,0.4236882456337186,0.4803308889932449,0.4530724249452811,0.473689465801298,0.475927023644866,0.5271390717155313
0.4715485626404826,0.4197793933316621,0.3770416812420957,0.5494505494505495,0.6899716115402389,0.4034899520846742,0.4272411084932122,0.4859661163891197,0.4596060239783085,0.4775836245631552,0.4777382598959362,0.5236772373707155
0.4769312670057968,0.4152043118576084,0.3687000511261201,0.5515436944008373,0.7031755463128011,0.3971965958664092,0.431841130932346,0.4928656576238124,0.4677730227695927,0.4827758362456315,0.4792860436013963,0.5199162321565945
0.4829646279427422,0.4132614690398596,0.363452896698329,0.551380167451596,0.71301247771836,0.3937638561109919,0.4424623209544112,0.5053281797493047,0.4815915847244455,0.492727575303711,0.4844233682407956,0.5208137447645098
