Lead I,Lead II,Lead III,aVR,aVL,aVF,V1,V2,V3,V4,V5,V6
0.1689342403628118,0.13139894086496032,0.06074766355140181,0.8522332506203475,0.23652931854199685,0.10842504059173731,0.7315301778111696,0.683372154181381,0.3969475277497477,0.17881840048105832,0.11046728971962616,0.13473152520039527
0.1626984126984127,0.12466902030008827,0.052803738317757115,0.8588089330024815,0.23098256735340725,0.10138913945516868,0.7277736038066616,0.6797655721692087,0.39385721493440967,0.17528562838244136,0.10598130841121495,0.12946085428791038
0.159297052154195,0.12180052956751987,0.05140186915887843,0.8619106699751862,0.2266244057052298,0.09886343135486196,0.722389181066867,0.6755578931550079,0.3903884964682139,0.17115153337342154,0.10046728971962615,0.1235313495113649
0.16439909297052155,0.1268755516328332,0.056542056074766145,0.8568238213399505,0.23177496038034864,0.10391484755547539,0.7236413724017029,0.6770606356600796,0.39120837537840564,0.1722038484666266,0.1025233644859813,0.12583726803557702
0.1709183673469388,0.1329435127978817,0.060280373831775584,0.8504962779156328,0.23930269413629154,0.10968789464189067,0.7297771099423992,0.6820196859268164,0.39568617558022195,0.17731509320505112,0.10813084112149532,0.13275502360821345
0.1697845804988662,0.13139894086496032,0.05794392523364484,0.8518610421836229,0.2389064976228209,0.10788381742738581,0.731404958677686,0.6836727026823952,0.3973890010090817,0.17874323511725795,0.10981308411214953,0.1349511364884155
0.16340702947845806,0.12499999999999996,0.051869158878504656,0.8583126550868487,0.23217115689381929,0.10156954717661917,0.7277736038066616,0.680441806296491,0.3942356205852674,0.175210463018641,0.10588785046728971,0.131217744592072
0.15915532879818592,0.12202118270079439,0.053271028037383344,0.861786600496278,0.2258320126782884,0.09940465451921347,0.7232657150012521,0.6763092644075437,0.3903884964682139,0.1710012026458208,0.10065420560747664,0.12429998901943562
0.16383219954648526,0.12621359223300974,0.055140186915887866,0.8574441687344915,0.231378763866878,0.10319321666967339,0.7243926872026045,0.6776617326621084,0.3917129162462159,0.17265484064942874,0.10233644859813083,0.12671571318765784
0.17006802721088435,0.1320609002647838,0.059813084112149355,0.8513647642679901,0.23851030110935026,0.10878585603463832,0.7300275482093664,0.6824705086783379,0.396127648839556,0.17731509320505112,0.10859813084112149,0.13330405182826394
0.16907596371882083,0.13106796116504854,0.0588785046728973,0.8523573200992557,0.23732171156893814,0.10788381742738581,0.7330328074129727,0.6839732511834097,0.3975782038345106,0.17911906193625976,0.11037383177570093,0.1357197759964862
0.1626984126984127,0.12477934686672552,0.053271028037383344,0.8586848635235733,0.23098256735340725,0.10156954717661917,0.7285249186075632,0.6799909835449696,0.3942986881937437,0.17558628983764282,0.10579439252336448,0.1296804655759306
0.15986394557823128,0.12312444836716681,0.056074766355140325,0.8607940446650124,0.2258320126782884,0.10084791629081717,0.7228900576008014,0.6758584416560222,0.390640766902119,0.17115153337342154,0.1011214953271028,0.12375096079938508
0.16383219954648526,0.12753751103265668,0.06121495327102804,0.8566997518610422,0.22900158478605384,0.10535810932707926,0.724517906336088,0.6775114584116012,0.39202825428859733,0.17273000601322908,0.1030841121495327,0.12583726803557702
0.1707766439909297,0.13261253309797,0.059813084112149355,0.8507444168734493,0.23930269413629154,0.10932707919898967,0.7297771099423992,0.6822450973025772,0.3960645812310797,0.17708959711365002,0.10859813084112149,0.13264521796420334
0.17006802721088435,0.1315092674315975,0.05700934579439238,0.8516129032258065,0.2396988906497623,0.10788381742738581,0.731404958677686,0.6838229769329026,0.3975782038345106,0.17821707757065544,0.11,0.13440210826836496
0.16255668934240364,0.12522065313327446,0.055607476635514096,0.858560794044665,0.22939778129952457,0.10247158578387153,0.7281492612071124,0.6799909835449696,0.3946770938446014,0.17528562838244136,0.10551401869158877,0.1292412429998902
0.16043083900226757,0.12224183583406881,0.05046728971962597,0.861166253101737,0.2286053882725832,0.09904383907631246,0.7228900576008014,0.6760087159065293,0.39120837537840564,0.17197835237522552,0.10028037383177568,0.12462940595146592
0.16454081632653061,0.12676522506619595,0.055607476635514096,0.8566997518610422,0.23217115689381929,0.10373443983402489,0.724517906336088,0.6769103614095724,0.3917759838546922,0.17273000601322908,0.1019626168224299,0.12583726803557702
0.1712018140589569,0.1329435127978817,0.059813084112149355,0.8503722084367246,0.2396988906497623,0.10968789464189067,0.7305284247433007,0.6817191374258021,0.39587537840565085,0.17693926638604932,0.10766355140186915,0.13165696716811243
0.17006802721088435,0.13095763459841128,0.05467289719626163,0.8519851116625311,0.24049128367670358,0.10698177882013346,0.7324067117455547,0.6835224284318882,0.3975782038345106,0.1786680697534576,0.11,0.13473152520039527
0.16284013605442174,0.12488967343336278,0.053271028037383344,0.858560794044665,0.23098256735340725,0.10174995489806968,0.7281492612071124,0.6796904350439552,0.3941725529767911,0.17498496692723994,0.10542056074766355,0.12935104864390026
0.16000566893424037,0.12334510150044133,0.055607476635514096,0.8606699751861043,0.2258320126782884,0.10084791629081717,0.722389181066867,0.675332481779247,0.3908299697275479,0.17085087191822007,0.10065420560747664,0.12309212693532447
0.16425736961451246,0.12698587819947046,0.05747663551401861,0.8566997518610422,0.23098256735340725,0.10427566299837623,0.7232657150012521,0.6769103614095724,0.39183905146316844,0.17205351773902589,0.10214953271028036,0.1255078511035467
0.17063492063492064,0.13250220653133274,0.059813084112149355,0.8508684863523573,0.2389064976228209,0.10914667147753918,0.73015276734285,0.6818694116763092,0.39581231079717455,0.17731509320505112,0.10766355140186915,0.13242560667618317
0.17035147392290248,0.13051632833186233,0.052336448598130886,0.8521091811414393,0.2416798732171157,0.10626014793433161,0.7331580265464563,0.6832218799308738,0.3971997981836528,0.17964521948286227,0.11,0.1342923026243549
0.16397392290249435,0.12466902030008827,0.048598130841121454,0.8581885856079404,0.23454833597464345,0.10066750856936682,0.7277736038066616,0.6798407092944624,0.39436175580221994,0.1758117859290439,0.10579439252336448,0.1304491050840013
0.16014739229024944,0.12202118270079439,0.05000000000000014,0.8612903225806452,0.2286053882725832,0.09886343135486196,0.7227648384673178,0.6759335787812758,0.3909561049445005,0.17152736019242334,0.10102803738317755,0.12473921159547599
0.16524943310657597,0.12742718446601942,0.056074766355140325,0.8560794044665013,0.23296354992076068,0.10445607071982674,0.7248935637365389,0.6772860470358404,0.391523713420787,0.17288033674082984,0.10289719626168223,0.1261666849676073
0.177437641723356,0.13735657546337154,0.05794392523364484,0.8451612903225807,0.24960380348652927,0.11275482590654874,0.734159779614325,0.6849500338117064,0.39896569122098885,0.18129885748647023,0.11327102803738316,0.13758647194465798
0.19203514739229025,0.15114739629302734,0.06822429906542068,0.8310173697270472,0.2654516640253566,0.12610499729388416,0.7454295016278487,0.6942670373431512,0.4086150353178607,0.19249849669272398,0.12766355140186914,0.15021412100581968
0.19926303854875282,0.16195939982347748,0.09065420560747649,0.8218362282878412,0.2658478605388272,0.1392747609597691,0.7511895817680941,0.7009542414907205,0.4146695257315842,0.19963920625375828,0.1367289719626168,0.15801032173053697
0.21017573696145125,0.17817740511915273,0.12289719626168231,0.8079404466501242,0.2678288431061806,0.15875879487642064,0.7582018532431755,0.7071154857615147,0.4210393541876892,0.20655441972339147,0.14598130841121493,0.1667947732513451
0.23030045351473924,0.20068402471315097,0.1514018691588783,0.7864764267990075,0.2836767036450079,0.18257261410788378,0.7690959178562484,0.7177849575475242,0.4325807265388496,0.22015935057125677,0.1630841121495327,0.18106950697265836
0.2522675736961451,0.22263901147396292,0.17242990654205623,0.7643920595533499,0.3054675118858954,0.20458235612484207,0.78725269221137,0.73130964009317,0.44544651866801205,0.23631990378833434,0.18271028037383177,0.20083452289447676
0.26360544217687076,0.23631950573698146,0.19299065420560751,0.7518610421836229,0.31259904912836767,0.21973660472668236,0.7997746055597295,0.7426553460064618,0.4544021190716448,0.2471437161755863,0.1957009345794392,0.2131327550236082
0.2671485260770975,0.24095322153574586,0.20093457943925222,0.7476426799007445,0.3141838351822504,0.22514883637019664,0.8025294264963686,0.7449094597640694,0.45730322906155396,0.25045099218280215,0.20018691588785048,0.21653672998792134
0.2753684807256236,0.24790379523389233,0.20280373831775714,0.7400744416873449,0.3248811410459588,0.2311022911780624,0.8029050838968194,0.7454354196408446,0.4585645812310797,0.25180396873120864,0.2014018691588785,0.21752498078401225
0.28217120181405897,0.2561782877316858,0.21588785046728956,0.7325062034739455,0.3288431061806656,0.24048349269348726,0.8080390683696468,0.7512961154106244,0.46379919273461145,0.25699037883343356,0.2075700934579439,0.22598001537279014
0.2893990929705215,0.2626875551632834,0.21962616822429898,0.725682382133995,0.33755942947702056,0.24643694750135306,0.8150513398447283,0.7564805770531219,0.4679616548940464,0.2625526157546602,0.21485981308411212,0.23300757658943666
0.286281179138322,0.25794351279788175,0.20981308411214938,0.7297766749379653,0.3371632329635499,0.24066390041493776,0.8140495867768595,0.7545270117965286,0.46581735620585263,0.2603728202044498,0.21233644859813083,0.23026243548918413
0.27352607709750565,0.24591791703442192,0.20093457943925222,0.742059553349876,0.32290015847860537,0.2291178062421072,0.8037816178312045,0.7463370651438875,0.4594475277497477,0.2526307877330127,0.202803738317757,0.22125837268035575
0.2675736961451247,0.2413945278022948,0.20140186915887845,0.7471464019851117,0.3145800316957211,0.225690059534548,0.795892812421738,0.7407017807498685,0.4552219979818365,0.24766987372218882,0.19644859813084112,0.21456022839573952
0.2719671201814059,0.24503530450132394,0.2023364485981309,0.7433002481389578,0.3205229793977813,0.2287569907992062,0.7981467568244427,0.7420542490044331,0.4562310797174571,0.2487221888153939,0.198411214953271,0.21587789612386074
0.27168367346938777,0.24470432480141216,0.20140186915887845,0.7435483870967743,0.3205229793977813,0.2283961753563052,0.8015276734284998,0.7455856938913518,0.4574293642785065,0.25,0.19999999999999998,0.21752498078401225
0.26204648526077096,0.23223742277140338,0.18084112149532716,0.7547146401985112,0.3157686212361331,0.21414396536171743,0.7981467568244427,0.7404012322488541,0.45251009081735616,0.24413710162357186,0.19233644859813082,0.21060722521137584
0.2414965986394558,0.21006178287731692,0.1546728971962615,0.7761786600496279,0.2979397781299525,0.1910517770160563,0.7833708990733783,0.727477646705237,0.44241927346115034,0.23158448586891162,0.17691588785046727,0.1953442406939717
0.22278911564625853,0.19097528684907325,0.1355140186915889,0.7951612903225806,0.28011093502377177,0.17174815082085507,0.7659654395191585,0.7147043354121271,0.4292381432896064,0.2168520745640409,0.1583177570093458,0.1767870868562644
0.2121598639455782,0.1777360988526037,0.11448598130841099,0.8073200992555832,0.2737717908082409,0.15677430994046546,0.7559479088404708,0.706138703133218,0.41958879919273456,0.2051262778111846,0.14383177570093456,0.16492807730317335
0.20507369614512472,0.16526919682259492,0.08504672897196254,0.8173697270471465,0.2765451664025357,0.1408984304528233,0.7513148009015778,0.7011796528664812,0.4146064581231079,0.1988123872519543,0.13579439252336448,0.15921818381464806
0.18863378684807255,0.14772727272727273,0.06495327102803748,0.8343672456575683,0.2618858954041204,0.1226772505863251,0.7441773102930127,0.693215117589601,0.40678607467204836,0.18971737823211066,0.12401869158878503,0.14900625892170857
0.16780045351473924,0.1286407766990291,0.052336448598130886,0.8543424317617866,0.23811410459587953,0.10463647844127724,0.7305284247433007,0.6819445488015629,0.3961907164480323,0.17716476247745036,0.10841121495327102,0.13242560667618317
0.16071428571428573,0.12334510150044133,0.05373831775700917,0.8602977667493797,0.2278129952456418,0.10066750856936682,0.7230152767342849,0.676083853031783,0.39108224016145304,0.1710763680096212,0.1008411214953271,0.12419018337542549
0.16652494331065762,0.12808914386584289,0.055140186915887866,0.8550868486352359,0.23534072900158473,0.10463647844127724,0.7240170298021538,0.6773611841610939,0.3917759838546922,0.1723541791942273,0.10261682242990654,0.12572746239156693
0.1716269841269841,0.13261253309797,0.05700934579439238,0.8503722084367246,0.2416798732171157,0.10878585603463832,0.7300275482093664,0.6824705086783379,0.3961907164480323,0.1775405892964522,0.10869158878504671,0.13286482925222357
0.1709183673469388,0.13128861429832306,0.053271028037383344,0.8513647642679901,0.242472266244057,0.10698177882013346,0.7322814926120711,0.6840483883086633,0.39770433905146313,0.17904389657245942,0.11074766355140186,0.1346217195563852
0.1651077097505669,0.1251103265666372,0.04672897196261694,0.8574441687344915,0.2369255150554675,0.10066750856936682,0.7280240420736288,0.6800661206702231,0.3947401614530776,0.17460914010823814,0.10635514018691589,0.1291314373558801
0.16156462585034012,0.12191085613415713,0.044859813084112014,0.8607940446650124,0.23256735340729,0.0977809850261591,0.7228900576008014,0.6762341272822902,0.3917129162462159,0.17085087191822007,0.10130841121495326,0.12386076644339519
0.16652494331065762,0.1265445719329214,0.048130841121495224,0.8560794044665013,0.23811410459587953,0.10211077034097053,0.7231404958677685,0.6777368697873619,0.39240665993945506,0.1723541791942273,0.1030841121495327,0.12506862852750628
0.17205215419501135,0.13272285966460726,0.056542056074766145,0.8501240694789083,0.242472266244057,0.10878585603463832,0.729526671675432,0.6824705086783379,0.39644298688193735,0.17731509320505112,0.10906542056074765,0.13253541232019328
0.17006802721088435,0.13184024713150927,0.05841121495327107,0.8514888337468983,0.2389064976228209,0.10842504059173731,0.734159779614325,0.6836727026823952,0.3978304742684157,0.17919422730006013,0.11037383177570093,0.1349511364884155
0.16298185941043083,0.1251103265666372,0.053271028037383344,0.8584367245657568,0.23098256735340725,0.10193036261952003,0.7294014525419483,0.6797655721692087,0.3946770938446014,0.1758117859290439,0.1053271028037383,0.1295706599319205
0.1597222222222222,0.12169020300088261,0.05000000000000014,0.861786600496278,0.22820919175911247,0.09850261591196095,0.7235161532682193,0.6763092644075437,0.3913975782038345,0.17197835237522552,0.10065420560747664,0.1245196003074558
0.16524943310657597,0.12621359223300974,0.0509345794392522,0.8566997518610422,0.23534072900158473,0.10229117806242104,0.7233909341347358,0.6778871440378691,0.39202825428859733,0.17250450992182803,0.10214953271028036,0.12572746239156693
0.1712018140589569,0.13239187996469548,0.05700934579439238,0.8506203473945411,0.24128367670364498,0.10860544831318782,0.7304032056098171,0.6828461943046059,0.39644298688193735,0.1773902585688515,0.10794392523364485,0.13242560667618317
0.16992630385487528,0.1320609002647838,0.059813084112149355,0.8514888337468983,0.23811410459587953,0.10878585603463832,0.7321562734785875,0.6848748966864527,0.39764127144298683,0.1792693926638605,0.11093457943925233,0.13506094213242562
0.16284013605442174,0.125441306266549,0.055607476635514096,0.8581885856079404,0.23019017432646588,0.10265199350532203,0.7287753568745304,0.6801412577954767,0.39455095862764883,0.17536079374624172,0.10644859813084111,0.1297902712199407
0.15986394557823128,0.12224183583406881,0.051869158878504656,0.8612903225806452,0.22741679873217116,0.09940465451921347,0.7231404958677685,0.6763844015327972,0.3910191725529768,0.17115153337342154,0.10065420560747664,0.12429998901943562
0.16454081632653061,0.12731685789938216,0.05794392523364484,0.8564516129032258,0.231378763866878,0.10463647844127724,0.7240170298021538,0.6775114584116012,0.39196518668012104,0.17250450992182803,0.10158878504672897,0.12572746239156693
0.171343537414966,0.1329435127978817,0.05934579439252353,0.8502481389578164,0.24049128367670358,0.10950748692044017,0.7305284247433007,0.68209482305207,0.39581231079717455,0.17731509320505112,0.10794392523364485,0.13231580103217302
0.16737528344671201,0.12720653133274487,0.048598130841121454,0.855210918114144,0.23930269413629154,0.10265199350532203,0.7325319308790382,0.6838981140581561,0.3960015136226034,0.17851773902585688,0.10831775700934579,0.13165696716811243
0.14214852607709752,0.10183142100617833,0.024299065420560727,0.8806451612903227,0.21434231378763866,0.07721450478080454,0.7252692211369897,0.6733037793974002,0.3813698284561049,0.1664161154539988,0.08457943925233644,0.10563302953771823
0.07837301587301586,0.05692850838481907,0.04392523364485996,0.9337468982630274,0.11687797147385098,0.04438029947681755,0.7067367893814175,0.6479825681869411,0.35488143289606455,0.13003607937462416,0.04485981308411214,0.056989129241243004
0.02366780045351474,0.018203883495145658,0.059813084112149355,0.9795285359801489,0.033676703645007924,0.01587587948764199,0.7092411720510894,0.6367871365241565,0.34472754793138244,0.1037282020444979,0.012149532710280363,0.015372790161414294
0.018565759637188206,0.013901147396293055,0.0588785046728973,0.9841191066997519,0.026941362916006305,0.01208731733718207,0.7608314550463311,0.6706739800135246,0.39190211907164474,0.13116355983162958,0.012897196261682252,0.012298232129131437
0.10289115646258505,0.08627537511032654,0.08738317757009328,0.9064516129032258,0.1327258320126783,0.0768536893379037,0.8403456048084147,0.7472387106469306,0.504856205852674,0.23376428141912206,0.08514018691588786,0.0885033490721423
0.24560657596371882,0.22517652250661965,0.2051401869158879,0.7658808933002481,0.2824881141045959,0.21306151903301457,0.903831705484598,0.8320685250582313,0.6516145307769929,0.4074714371617558,0.2403738317757009,0.22971340726913364
0.4505385487528345,0.42431597528684906,0.3728971962616822,0.5642679900744417,0.49762282091917587,0.4082626736424319,0.9529176058101677,0.9150950484634457,0.7891649848637738,0.6007215874924835,0.44523364485981304,0.4242890084550346
0.6672335600907029,0.6525816416593115,0.6252336448598128,0.3410669975186104,0.6937400950871632,0.6436947501353057,0.9896068119208615,0.9816665414381245,0.9276614530776992,0.8162958508719182,0.681214953271028,0.6489513560997036
0.8808106575963719,0.8746690203000884,0.8616822429906541,0.12270471464019855,0.8918383518225039,0.8708280714414578,0.9684447783621337,0.9833195581937034,0.9996846619576185,0.9787282020444978,0.9098130841121495,0.8727352585922916
0.9951814058956916,0.9947043248014122,0.9929906542056074,0.005210918114143967,0.996038034865293,0.9944073606350352,0.8265715001252191,0.8662559170486137,0.9122729566094853,0.9696331930246542,0.9994392523364485,0.9959371911716262
0.9428854875283447,0.943071491615181,0.9467289719626166,0.057071960297766795,0.9425515055467512,0.9431715677430992,0.5886551465063861,0.6507626418213238,0.6823284561049444,0.8064491882140709,0.9007476635514018,0.9450971779949489
0.7867063492063492,0.7801191526919683,0.7719626168224297,0.2169975186104219,0.798335974643423,0.7762944254014073,0.3256949661908339,0.37801487715080023,0.41031786074672044,0.5807276007215875,0.7122429906542055,0.7802789063357856
0.5967970521541951,0.5783318623124448,0.5429906542056073,0.4136476426799008,0.6299524564183835,0.5670214685188526,0.1036814425244177,0.12277406266436246,0.15338042381432895,0.3483914612146723,0.4846728971962616,0.5782365213571977
0.39725056689342403,0.3648499558693734,0.2962616822429906,0.6210918114143921,0.4556259904912836,0.3447591556918635,0.007137490608564959,0.008189946652641049,0.014253279515640796,0.1524353577871317,0.2614953271028037,0.3652135719775996
0.23044217687074828,0.18678287731685791,0.09252336448598142,0.7941687344913152,0.3086370839936608,0.1598412412051235,0.10117705985474576,0.06642121872417169,0.032669021190716456,0.029314491882140706,0.11504672897196261,0.19084220928955747
0.13903061224489796,0.09521182700794353,0.006074766355140182,0.8856079404466503,0.2175118858954041,0.06837452642973119,0.2812421738041572,0.22127883387181602,0.12682896064581234,0.005637402285027058,0.0439252336448598,0.10003294169320302
0.08616780045351474,0.05505295675198592,0.010280373831775847,0.9313895781637718,0.14183835182250396,0.03644235973299656,0.4526671675432006,0.3847772184236231,0.23126892028254287,0.03615453998797354,0.02177570093457945,0.05534204458109147
0.07936507936507936,0.05703883495145633,0.041121495327102985,0.9332506203473946,0.11925515055467513,0.0440194840339167,0.5864012021036814,0.5216770606356601,0.30909434914228046,0.09147624774503908,0.03149532710280374,0.05556165586911167
0.12570861678004536,0.08936451897616947,0.025233644859813185,0.8947890818858562,0.19096671949286845,0.06729208010102833,0.6704232406711744,0.6128183935682621,0.35835015136226034,0.13785327720986168,0.06261682242990654,0.08740529263204129
0.16156462585034012,0.11738746690203,0.025700934579439415,0.8632754342431763,0.2408874801901743,0.09038426844668947,0.7191334835962935,0.6634608159891803,0.38565842583249244,0.16521346963319303,0.09271028037383176,0.1201273745470517
0.16298185941043083,0.12279346866725512,0.04392523364485996,0.8596774193548387,0.23534072900158473,0.09832220819051062,0.7275231655396944,0.6775865955368547,0.3928481331987891,0.17378232110643416,0.10327102803738317,0.12715493576369827
0.1608560090702948,0.12224183583406881,0.048598130841121454,0.8609181141439206,0.23019017432646588,0.09868302363341146,0.7233909341347358,0.6763092644075437,0.3913345105953582,0.17145219482862298,0.10093457943925233,0.12309212693532447
0.1649659863945578,0.12698587819947046,0.055607476635514096,0.8564516129032258,0.23296354992076068,0.10391484755547539,0.724267468069121,0.6775114584116012,0.39253279515640765,0.1723541791942273,0.1019626168224299,0.12561765674755682
0.1717687074829932,0.13250220653133274,0.056074766355140325,0.8503722084367246,0.242472266244057,0.10842504059173731,0.7300275482093664,0.6821699601773236,0.3961907164480323,0.17716476247745036,0.1080373831775701,0.13231580103217302
0.17006802721088435,0.13161959399823475,0.05794392523364484,0.8516129032258065,0.2389064976228209,0.10806422514883632,0.7336589030803906,0.6841235254339169,0.3975782038345106,0.17911906193625976,0.11065420560747662,0.1346217195563852
0.16425736961451246,0.1251103265666372,0.04953271028037391,0.857816377171216,0.23454833597464345,0.10120873173371818,0.7280240420736288,0.6801412577954767,0.3939202825428859,0.17506013229104028,0.1053271028037383,0.12847260349181946
0.161281179138322,0.1225728155339806,0.048598130841121454,0.860545905707196,0.23098256735340725,0.09886343135486196,0.7226396193338342,0.6756330302802614,0.3909561049445005,0.1707757065544197,0.10009345794392524,0.12210387613923357
0.1655328798185941,0.12709620476610772,0.0542056074766354,0.8562034739454095,0.2341521394611727,0.10373443983402489,0.7237665915351865,0.6769103614095724,0.39183905146316844,0.17212868310282622,0.10158878504672897,0.12331173822334465
0.17148526077097506,0.13239187996469548,0.056542056074766145,0.8504962779156328,0.2416798732171157,0.10842504059173731,0.7306536438767843,0.6825456458035914,0.3962537840565086,0.17716476247745036,0.10757009345794392,0.13176677281212254
0.17049319727891155,0.13184024713150927,0.05747663551401861,0.8512406947890819,0.24009508716323294,0.10824463287028682,0.7331580265464563,0.6848748966864527,0.3981458123107971,0.17957005411906193,0.1105607476635514,0.1351707477764357
0.1635487528344671,0.12577228596646067,0.05467289719626163,0.8576923076923078,0.231378763866878,0.10265199350532203,0.7275231655396944,0.6805169434217446,0.3949293642785065,0.17490980156343958,0.1053271028037383,0.1289118260678599
0.16156462585034012,0.12334510150044133,0.0509345794392522,0.8600496277915635,0.23019017432646588,0.09994587768356482,0.722389181066867,0.6763092644075437,0.39202825428859733,0.17122669873722185,0.10102803738317755,0.12364115515537497
0.1655328798185941,0.12764783759929393,0.056074766355140325,0.8558312655086848,0.23375594294770205,0.10463647844127724,0.7231404958677685,0.6767600871590653,0.3921543895055499,0.17242934455802766,0.1019626168224299,0.1245196003074558
0.1712018140589569,0.13283318623124452,0.05934579439252353,0.8504962779156328,0.24009508716323294,0.10932707919898967,0.73015276734285,0.6819445488015629,0.3961907164480323,0.17701443174984965,0.10794392523364485,0.13187657845613263
0.17049319727891155,0.13195057369814653,0.05794392523364484,0.8512406947890819,0.2396988906497623,0.10842504059173731,0.7320310543451038,0.683747839807649,0.3973890010090817,0.17919422730006013,0.11028037383177569,0.13352366311628416
0.1635487528344671,0.12621359223300974,0.056542056074766145,0.8574441687344915,0.2305863708399366,0.10337362439112388,0.7266466316053093,0.6797655721692087,0.3941094853683148,0.1744588093806374,0.1053271028037383,0.12814318655978918
0.16057256235827663,0.12290379523389228,0.052336448598130886,0.8606699751861043,0.22820919175911247,0.09994587768356482,0.7212622088655146,0.6756330302802614,0.39120837537840564,0.17070054119061936,0.10009345794392524,0.12155484791918303
0.165391156462585,0.12709620476610772,0.0542056074766354,0.8562034739454095,0.2341521394611727,0.10373443983402489,0.7232657150012521,0.6776617326621084,0.3922174571140262,0.1722038484666266,0.10205607476635514,0.12462940595146592
0.17191043083900226,0.1329435127978817,0.05700934579439238,0.8501240694789083,0.24207606973058635,0.10896626375608867,0.73015276734285,0.6828461943046059,0.3961907164480323,0.17746542393265186,0.10841121495327102,0.13209618974415285
0.17035147392290248,0.1311782877316858,0.055607476635514096,0.8517369727047146,0.24049128367670358,0.10734259426303447,0.7322814926120711,0.683747839807649,0.397452068617558,0.17896873120865905,0.1105607476635514,0.1348413308444054
0.16397392290249435,0.12499999999999996,0.05000000000000014,0.8579404466501241,0.2341521394611727,0.10120873173371818,0.7273979464062108,0.6796904350439552,0.39442482341069623,0.17528562838244136,0.10607476635514017,0.1291314373558801
0.16057256235827663,0.12213150926743155,0.04906542056074768,0.861166253101737,0.22939778129952457,0.09868302363341146,0.7227648384673178,0.676083853031783,0.391523713420787,0.17152736019242334,0.10102803738317755,0.12408037773141538
0.1659580498866213,0.1265445719329214,0.05000000000000014,0.8562034739454095,0.2369255150554675,0.10247158578387153,0.7240170298021538,0.6774363212863475,0.39246972754793136,0.17288033674082984,0.10224299065420561,0.1261666849676073
0.17233560090702946,0.13250220653133274,0.0542056074766354,0.8501240694789083,0.2436608557844691,0.10824463287028682,0.7299023290758828,0.6825456458035914,0.39631685166498487,0.17746542393265186,0.10775700934579438,0.13209618974415285
0.17035147392290248,0.1311782877316858,0.055140186915887866,0.8517369727047146,0.24049128367670358,0.10716218654158396,0.733533683946907,0.6841986625591704,0.3980196770938446,0.1786680697534576,0.10990654205607475,0.1342923026243549
0.163265306122449,0.12599293909973522,0.056542056074766145,0.8576923076923078,0.23019017432646588,0.10337362439112388,0.7277736038066616,0.6800661206702231,0.3946140262361251,0.17460914010823814,0.10551401869158877,0.1291314373558801
0.16071428571428573,0.12378640776699028,0.055607476635514096,0.8601736972704715,0.22702060221870043,0.10120873173371818,0.7230152767342849,0.6763844015327972,0.391523713420787,0.1710763680096212,0.10130841121495326,0.12440979466344568
0.1659580498866213,0.12842012356575466,0.05794392523364484,0.855210918114144,0.23335974643423132,0.1055385170485296,0.724517906336088,0.6777368697873619,0.39259586276488395,0.17265484064942874,0.10289719626168223,0.1261666849676073
0.1717687074829932,0.1340467784642542,0.06261682242990634,0.8495037220843674,0.23930269413629154,0.11113115641349454,0.7292762334084647,0.682620782928845,0.39631685166498487,0.17686410102224895,0.10841121495327102,0.13220599538816297
0.17346938775510204,0.13481906443071492,0.06074766355140181,0.8483870967741937,0.24286846275752774,0.11131156413494488,0.7332832456799399,0.6874295589450747,0.40155146316851664,0.1830276608538785,0.1130841121495327,0.13791588887668826
0.18013038548752835,0.13912180052956752,0.056542056074766145,0.8430521091811415,0.2535657686212361,0.1140176799567021,0.7375406962183821,0.692839431963333,0.41284056508577194,0.19355081178592906,0.1191588785046729,0.14110025255298123
0.19486961451247165,0.1509267431597529,0.05794392523364484,0.8299007444168736,0.2737717908082409,0.12394010463647846,0.741923365890308,0.6994514989856488,0.4282921291624621,0.20738123872519545,0.1288785046728972,0.14757878554957726
0.21612811791383219,0.1722197705207414,0.0780373831775699,0.8085607940446651,0.2951664025356577,0.14522821576763487,0.7511895817680941,0.7135772785333233,0.4476538849646821,0.2269993986770896,0.1444859813084112,0.16152410233886022
0.23781179138321998,0.1929611650485437,0.09439252336448593,0.787468982630273,0.31814580031695716,0.16543388057008845,0.7663410969196093,0.7307085430911413,0.4711150353178607,0.25075165363800356,0.16542056074766354,0.18030086746458765
0.2568027210884354,0.21105472197705208,0.1084112149532708,0.768982630272953,0.3387480190174326,0.1829334295507848,0.7796143250688705,0.7464122022691411,0.492747225025227,0.27337642814191215,0.1837383177570093,0.1977599648621939
0.2655895691609977,0.2206531332744925,0.12009345794392534,0.759801488833747,0.3462757527733756,0.192855854230561,0.7849987478086651,0.755353520174318,0.5087663975782037,0.2879585087191822,0.1939252336448598,0.20632480509498188
0.2793367346938776,0.23543689320388347,0.13738317757009344,0.7454094292803971,0.358161648177496,0.20837091827530213,0.7905083896819434,0.7645953865805094,0.525542381432896,0.3036680697534576,0.2048598130841121,0.21488964532776983
0.30215419501133783,0.257171226831421,0.15420560747663528,0.7232009925558313,0.3827258320126783,0.22929821396355754,0.8025294264963686,0.7790968517544518,0.5461024217961654,0.3247143716175586,0.22158878504672894,0.22971340726913364
0.3251133786848073,0.27923654015887034,0.17242990654205623,0.7007444168734492,0.4072900158478605,0.25094714053761497,0.8186826947157525,0.797655721692088,0.568680625630676,0.34914311485267585,0.24242990654205604,0.24947842319095198
0.3391439909297052,0.29413062665489853,0.18878504672897187,0.6862282878411912,0.4199683042789223,0.26628179686090564,0.8312046080641121,0.810954992861973,0.5892406659939454,0.3694377630787733,0.2585981308411215,0.26485121335236633
0.3479308390022676,0.3031774051191527,0.19813084112149523,0.6772952853598015,0.4282884310618066,0.27548259065487996,0.8344603055346856,0.8168908257570064,0.6033678102926336,0.38259170174383644,0.2672897196261682,0.2714395519929724
0.3594104308390023,0.3139894086496028,0.20560747663551412,0.6662531017369727,0.44096671949286836,0.28576583077755735,0.8382168795391935,0.8240288526560974,0.615981331987891,0.39431749849669273,0.27579439252336446,0.27660041726144724
0.3765589569160998,0.33142100617828774,0.22336448598130842,0.6488833746898264,0.45760697305863707,0.3034457874797042,0.8459804658151765,0.836125929821925,0.63162209889001,0.410628382441371,0.28831775700934575,0.28802020423849783
0.3946995464852608,0.34752868490732575,0.23177570093457936,0.6318858560794045,0.4793977812995246,0.3182392206386433,0.8580015026296017,0.8495754752423172,0.6488395560040363,0.4280667468430547,0.304018691588785,0.3016361040957505
0.40206916099773243,0.35569285083848196,0.24158878504672898,0.6240694789081886,0.48534072900158476,0.3267183835468158,0.8671424993739043,0.8589676158990157,0.6622729566094853,0.4414461815995189,0.3161682242990654,0.3139343362248819
0.4070294784580499,0.35977493380406006,0.24299065420560725,0.6196029776674938,0.4920760697305864,0.3303265379758254,0.8671424993739043,0.8612217296566232,0.6685166498486377,0.44776007215874924,0.31822429906542055,0.31503239266498295
0.4108560090702948,0.3634157105030892,0.24579439252336424,0.6158808933002481,0.4960380348652932,0.333934692404835,0.8677685950413222,0.8629498835374558,0.6730575176589303,0.4518190018039687,0.3204672897196261,0.3164598660371143
0.41709183673469385,0.3722418358340689,0.26214953271028024,0.6081885856079405,0.4980190174326465,0.34439834024896265,0.8695216629100926,0.8663310541738672,0.6796165489404642,0.4585087191822008,0.32514018691588786,0.32227956516964973
0.4250283446712018,0.3795233892321271,0.267289719626168,0.600620347394541,0.5067353407290015,0.3512538336640808,0.8755321813173053,0.8724171613194078,0.6871215943491422,0.46587492483463616,0.3334579439252336,0.33040518282639725
0.4243197278911565,0.37775816416593117,0.26214953271028024,0.6019851116625311,0.5079239302694136,0.3487281255637741,0.8792887553218132,0.8759486062063264,0.688635216952573,0.46775405892964517,0.33607476635514016,0.3332601295706599
0.41737528344671204,0.3709179170344219,0.2560747663551401,0.6088089330024814,0.5007923930269413,0.34205303987010643,0.8749060856498874,0.8709895559395896,0.6847250252270434,0.46369512928442574,0.33130841121495325,0.3278796530141649
0.41241496598639454,0.3654015887025596,0.24906542056074743,0.6140198511166254,0.49683042789223447,0.3360995850622407,0.8691460055096418,0.8652039972950635,0.6772199798183652,0.4563289236319904,0.32364485981308405,0.3201932579334577
0.41567460317460314,0.36617387466902035,0.24158878504672898,0.6122828784119108,0.5043581616481775,0.3353779541764387,0.8676433759078387,0.8623487865354271,0.6718592330978808,0.4512928442573662,0.3202803738317757,0.31624025474909406
0.41298185941043086,0.3639673433362754,0.24112149532710275,0.6146401985111664,0.501188589540412,0.33357387696193397,0.8691460055096418,0.8618228266586521,0.6692734611503531,0.44866205652435354,0.3200934579439252,0.31821675634127594
0.40150226757369617,0.35326566637246254,0.23317757009345805,0.6256823821339951,0.4885103011093503,0.32311022911780624,0.8656398697721012,0.8569389135171688,0.6603809283551968,0.43896572459410704,0.31429906542056074,0.3116284177006698
0.3859126984126984,0.33859223300970875,0.22336448598130842,0.6408188585607941,0.4706814580031696,0.3093992422875698,0.8542449286250939,0.8449169734765947,0.6439833501513621,0.42348165965123274,0.2995327102803738,0.29647523882727567
0.3711734693877551,0.32535304501323925,0.21542056074766333,0.6547146401985112,0.4536450079239302,0.2969511095074869,0.8443526170798897,0.8317679765572168,0.6270181634712411,0.4059681298857486,0.28420560747663554,0.2832985615460634
0.3618197278911565,0.31608561341571045,0.2070093457943924,0.6638957816377171,0.4441362916006339,0.28775031571351256,0.8373403456048083,0.8219250131489969,0.6133324924318869,0.39168671076368006,0.27355140186915883,0.27506313824530576
0.35161564625850344,0.30670785525154454,0.20093457943925222,0.6736972704714641,0.4322503961965134,0.27891033736243903,0.8345855246681693,0.8162897287549777,0.6014127144298687,0.38086289837642817,0.2662616822429906,0.2715493576369825
0.3348922902494331,0.2898278905560459,0.18411214953271035,0.6904466501240695,0.41600633914421553,0.2617716038246437,0.8283245679939893,0.8081749192275902,0.5848890010090817,0.3647023451593505,0.25485981308411215,0.26177665532008343
0.3120748299319728,0.26765225066195947,0.1654205607476636,0.7129032258064517,0.391838351822504,0.24012267725058625,0.8136739293764086,0.7919453001728154,0.5624369323915237,0.34170174383644014,0.23663551401869157,0.24289008455034589
0.2929421768707483,0.24834510150044128,0.1467289719626168,0.7322580645161291,0.3732171156893819,0.2206386433339347,0.8000250438266967,0.7744383499887294,0.5411200807265388,0.319377630787733,0.21672897196261678,0.224772153288679
0.280187074829932,0.23499558693733452,0.13271028037383192,0.7452853598014889,0.3613312202852615,0.20710806422514877,0.7902579514149761,0.7626418213239161,0.5218844601412714,0.30081178592904395,0.2022429906542056,0.21291314373558798
0.270124716553288,0.2247352162400706,0.12242990654205609,0.7554590570719604,0.3514263074484944,0.19664441638102106,0.7851239669421487,0.7549778345480501,0.5058022199798182,0.286455201443175,0.1925233644859813,0.20599538816295157
0.25170068027210885,0.20708296557811126,0.1084112149532708,0.7734491315136477,0.332012678288431,0.1795056828432257,0.7776108189331329,0.7439326771357727,0.4878910191725529,0.26909200240529163,0.1802803738317757,0.19446579554189083
0.22548185941043083,0.18203883495145629,0.08878504672897197,0.7990074441687345,0.303486529318542,0.1553310481688616,0.763335837716003,0.7256743556991508,0.4650605449041372,0.24443776307877327,0.16037383177570091,0.1755792247721533
0.2070578231292517,0.16405560458958515,0.07383177570093463,0.8171215880893301,0.2840729001584786,0.13783149918816523,0.7479338842975206,0.7083928168908258,0.4418516649848637,0.22151232711966326,0.1402803738317757,0.1568024596464258
0.19671201814058956,0.15136804942630186,0.053271028037383344,0.8287841191066998,0.2785261489698891,0.12339888147212695,0.7381667918858001,0.6975730708543091,0.4240665993945509,0.2041491280817799,0.12654205607476635,0.14483364444932467
0.185515873015873,0.14342453662842014,0.05700934579439238,0.8382133995037221,0.2610935023771791,0.11762583438571167,0.7357876283496118,0.6917123750845292,0.41038092835519674,0.19167167769092003,0.11878504672897194,0.1407708356209509
0.17191043083900226,0.13272285966460726,0.05700934579439238,0.8502481389578164,0.24207606973058635,0.10896626375608867,0.7331580265464563,0.6854759936884814,0.3997225025227043,0.1813740228502706,0.11205607476635512,0.13528055342044581
0.16340702947845806,0.12555163283318627,0.0542056074766354,0.8579404466501241,0.231378763866878,0.10247158578387153,0.7273979464062108,0.6794650236681944,0.3941094853683148,0.17506013229104028,0.10542056074766355,0.12836279784780935
0.15958049886621317,0.12268314210061786,0.05467289719626163,0.861166253101737,0.2258320126782884,0.10030669312646583,0.721136989732031,0.6754076189045006,0.3908930373360242,0.170625375826819,0.10018691588785046,0.12254309871527394
0.1655328798185941,0.1277581641659312,0.056542056074766145,0.8557071960297767,0.23335974643423132,0.10481688616272775,0.7228900576008014,0.6769103614095724,0.39190211907164474,0.17190318701142512,0.10233644859813083,0.12462940595146592
0.17247732426303855,0.13338481906443073,0.05747663551401861,0.8495037220843674,0.242472266244057,0.10950748692044017,0.7290257951414976,0.6816440003005484,0.3960015136226034,0.17678893565844858,0.10775700934579438,0.13088832766004171
0.1709183673469388,0.1311782877316858,0.05373831775700917,0.8514888337468983,0.24207606973058635,0.10698177882013346,0.7327823691460055,0.6832218799308738,0.39701059535822397,0.1786680697534576,0.1105607476635514,0.13341385747227405
0.163265306122449,0.12533097969991175,0.053271028037383344,0.8581885856079404,0.231378763866878,0.10211077034097053,0.7287753568745304,0.6796152979187017,0.3941725529767911,0.17490980156343958,0.10635514018691589,0.1282529922037993
0.16071428571428573,0.12312444836716681,0.052803738317757115,0.8604218362282879,0.22820919175911247,0.10030669312646583,0.7218883045329325,0.675332481779247,0.3905776992936428,0.17055021046301866,0.10037383177570093,0.12265290435928405
0.1651077097505669,0.12720653133274487,0.055607476635514096,0.8563275434243177,0.23296354992076068,0.1040952552769259,0.7227648384673178,0.6772109099105867,0.39190211907164474,0.17152736019242334,0.10214953271028036,0.12495882288349622
0.1712018140589569,0.13239187996469548,0.05747663551401861,0.8507444168734493,0.2408874801901743,0.10860544831318782,0.73015276734285,0.6828461943046059,0.3960015136226034,0.17671377029464821,0.10831775700934579,0.13198638410014274
0.17020975056689344,0.131729920564872,0.05794392523364484,0.8514888337468983,0.23930269413629154,0.10824463287028682,0.7330328074129727,0.6850251709369599,0.3977674066599394,0.17904389657245942,0.11140186915887851,0.13506094213242562
0.1636904761904762,0.1251103265666372,0.05140186915887843,0.8580645161290323,0.23296354992076068,0.10156954717661917,0.7277736038066616,0.6807423547975054,0.39436175580221994,0.17460914010823814,0.10570093457943924,0.12880202042384978
0.16099773242630383,0.12224183583406881,0.048598130841121454,0.8609181141439206,0.23019017432646588,0.09868302363341146,0.7225144002003506,0.6756330302802614,0.3908930373360242,0.17032471437161756,0.10037383177570093,0.12364115515537497
0.165391156462585,0.12720653133274487,0.05467289719626163,0.8562034739454095,0.2341521394611727,0.10391484755547539,0.724267468069121,0.6763844015327972,0.39209132189707363,0.17212868310282622,0.10271028037383176,0.12517843417151642
0.17106009070294784,0.13250220653133274,0.05841121495327107,0.8506203473945411,0.24049128367670358,0.10896626375608867,0.728900576008014,0.6819445488015629,0.39593844601412714,0.17686410102224895,0.10841121495327102,0.13220599538816297
0.17006802721088435,0.1315092674315975,0.05747663551401861,0.8517369727047146,0.23930269413629154,0.10806422514883632,0.7320310543451038,0.6838229769329026,0.3973259334006054,0.17821707757065544,0.11018691588785044,0.13385308004831448
0.163265306122449,0.125441306266549,0.0542056074766354,0.8580645161290323,0.23098256735340725,0.10229117806242104,0.7280240420736288,0.6803666691712374,0.3946140262361251,0.17490980156343958,0.1050467289719626,0.12935104864390026
0.16099773242630383,0.12290379523389228,0.0509345794392522,0.860545905707196,0.22939778129952457,0.09958506224066381,0.7228900576008014,0.6763844015327972,0.3917129162462159,0.17152736019242334,0.10149532710280372,0.12419018337542549
0.16609977324263037,0.1277581641659312,0.055140186915887866,0.8554590570719603,0.23454833597464345,0.10445607071982674,0.7236413724017029,0.6769103614095724,0.39259586276488395,0.17212868310282622,0.10289719626168223,0.1248490172394861
0.1712018140589569,0.13272285966460726,0.0588785046728973,0.8504962779156328,0.24049128367670358,0.10932707919898967,0.7283996994740797,0.6822450973025772,0.39656912209888995,0.17671377029464821,0.10813084112149532,0.13132755023608214
0.16921768707482993,0.13184024713150927,0.06168224299065427,0.8518610421836229,0.23652931854199685,0.10896626375608867,0.7317806160781366,0.684273799684424,0.3981458123107971,0.17919422730006013,0.11046728971962616,0.13407269133633468
0.16340702947845806,0.12555163283318627,0.0542056074766354,0.8579404466501241,0.231378763866878,0.10247158578387153,0.7285249186075632,0.680441806296491,0.39442482341069623,0.175210463018641,0.10607476635514017,0.12814318655978918
0.16113945578231292,0.12279346866725512,0.05000000000000014,0.8604218362282879,0.22979397781299524,0.09940465451921347,0.722389181066867,0.6760087159065293,0.3910191725529768,0.17070054119061936,0.1014018691588785,0.1232019325793346
0.1655328798185941,0.12720653133274487,0.0542056074766354,0.8560794044665013,0.2341521394611727,0.10391484755547539,0.7228900576008014,0.6768352242843189,0.3917129162462159,0.1722038484666266,0.10233644859813083,0.12364115515537497
0.171343537414966,0.13272285966460726,0.05841121495327107,0.8503722084367246,0.24049128367670358,0.10914667147753918,0.7300275482093664,0.6829213314298594,0.396127648839556,0.1773902585688515,0.10878504672897196,0.13099813330405183
0.17020975056689344,0.1311782877316858,0.056074766355140325,0.8517369727047146,0.24009508716323294,0.10734259426303447,0.7326571500125219,0.6846494853106919,0.397893541876892,0.17957005411906193,0.11065420560747662,0.1348413308444054
0.163265306122449,0.1251103265666372,0.052336448598130886,0.8583126550868487,0.23177496038034864,0.10174995489806968,0.7275231655396944,0.6802163949207303,0.3948032290615539,0.17528562838244136,0.10523364485981308,0.12814318655978918
0.16000566893424037,0.12301412180052955,0.0542056074766354,0.8609181141439206,0.2266244057052298,0.10048710084791633,0.7213874279989982,0.6756330302802614,0.3907038345105953,0.17092603728202044,0.10037383177570093,0.12221368178324364
0.16468253968253965,0.1268755516328332,0.055607476635514096,0.8566997518610422,0.23256735340729,0.10391484755547539,0.7227648384673178,0.6772860470358404,0.3914606458123107,0.17167769092002405,0.10205607476635514,0.1235313495113649
0.17020975056689344,0.13228155339805822,0.059813084112149355,0.8512406947890819,0.23851030110935026,0.10896626375608867,0.7299023290758828,0.6820196859268164,0.3961907164480323,0.1765634395670475,0.10831775700934579,0.13022949379598112
0.16907596371882083,0.1311782877316858,0.05934579439252353,0.8523573200992557,0.23732171156893814,0.10806422514883632,0.7321562734785875,0.6841235254339169,0.397893541876892,0.17896873120865905,0.11065420560747662,0.13374327440430436
0.16340702947845806,0.12610326566637248,0.056542056074766145,0.8576923076923078,0.23019017432646588,0.10337362439112388,0.72702228900576,0.6805920805469982,0.39455095862764883,0.17558628983764282,0.10588785046728971,0.1292412429998902
0.15986394557823128,0.12290379523389228,0.05467289719626163,0.8610421836228288,0.22622820919175904,0.10030669312646583,0.7220135236664161,0.6763844015327972,0.3910191725529768,0.17152736019242334,0.10102803738317755,0.12386076644339519
0.1651077097505669,0.12819947043248014,0.059813084112149355,0.8557071960297767,0.231378763866878,0.1057189247699801,0.7231404958677685,0.6778871440378691,0.39183905146316844,0.17257967528562837,0.10224299065420561,0.12528823981552653
0.17148526077097506,0.13371579876434242,0.0621495327102805,0.8498759305210919,0.23930269413629154,0.11077034097059353,0.7300275482093664,0.6828461943046059,0.39637991927346117,0.17693926638604932,0.10841121495327102,0.13231580103217302
0.17049319727891155,0.131729920564872,0.05700934579439238,0.8513647642679901,0.24009508716323294,0.10806422514883632,0.7330328074129727,0.6841235254339169,0.39808274470232086,0.17889356584485872,0.11046728971962616,0.13451191391237508
0.1636904761904762,0.12555163283318627,0.053271028037383344,0.857816377171216,0.23217115689381929,0.10229117806242104,0.7280240420736288,0.6802915320459838,0.39455095862764883,0.17543595911004212,0.10551401869158877,0.12880202042384978
0.15986394557823128,0.12191085613415713,0.05046728971962597,0.8615384615384617,0.2278129952456418,0.09868302363341146,0.7222639619333834,0.6758584416560222,0.39120837537840564,0.1707757065544197,0.10065420560747664,0.12243329307126387
0.16454081632653061,0.1266548984995587,0.055140186915887866,0.8568238213399505,0.23256735340729,0.10355403211257438,0.7233909341347358,0.6772860470358404,0.3922174571140262,0.17190318701142512,0.10271028037383176,0.12440979466344568
0.17148526077097506,0.1329435127978817,0.0588785046728973,0.8502481389578164,0.2408874801901743,0.10932707919898967,0.729526671675432,0.6825456458035914,0.3961907164480323,0.17723992784125076,0.10822429906542054,0.13132755023608214
0.17020975056689344,0.13139894086496032,0.056542056074766145,0.8517369727047146,0.2396988906497623,0.10770340970593546,0.7327823691460055,0.684273799684424,0.397893541876892,0.17881840048105832,0.10981308411214953,0.13407269133633468
0.16340702947845806,0.12555163283318627,0.0542056074766354,0.8579404466501241,0.231378763866878,0.10247158578387153,0.7280240420736288,0.6807423547975054,0.3948662966700302,0.17558628983764282,0.10579439252336448,0.1295706599319205
0.16057256235827663,0.12301412180052955,0.052803738317757115,0.860545905707196,0.22820919175911247,0.10012628540501532,0.7216378662659654,0.6762341272822902,0.3910191725529768,0.17115153337342154,0.1008411214953271,0.1232019325793346
0.16454081632653061,0.1266548984995587,0.05467289719626163,0.8568238213399505,0.23256735340729,0.10337362439112388,0.7227648384673178,0.6765346757833044,0.39190211907164474,0.17205351773902589,0.10149532710280372,0.1245196003074558
0.1716269841269841,0.13305383936451895,0.0588785046728973,0.8501240694789083,0.2408874801901743,0.10950748692044017,0.7304032056098171,0.6819445488015629,0.39593844601412714,0.1764131088394468,0.10766355140186915,0.13242560667618317
0.16964285714285715,0.1315092674315975,0.0588785046728973,0.8518610421836229,0.23811410459587953,0.10824463287028682,0.7320310543451038,0.6834472913066345,0.39707366296670027,0.17806674684305474,0.10962616822429905,0.13407269133633468
0.16284013605442174,0.12499999999999996,0.053271028037383344,0.858560794044665,0.23098256735340725,0.10193036261952003,0.7281492612071124,0.6795401607934479,0.3946140262361251,0.17460914010823814,0.10579439252336448,0.1291314373558801
0.16043083900226757,0.12246248896734334,0.0509345794392522,0.8609181141439206,0.2286053882725832,0.09940465451921347,0.7235161532682193,0.6759335787812758,0.39127144298688193,0.17115153337342154,0.10065420560747664,0.12342154386735478
0.1651077097505669,0.1268755516328332,0.0542056074766354,0.8564516129032258,0.23375594294770205,0.10355403211257438,0.7248935637365389,0.6770606356600796,0.39240665993945506,0.17205351773902589,0.10177570093457944,0.12572746239156693
0.171343537414966,0.13217122683142105,0.056074766355140325,0.8507444168734493,0.2416798732171157,0.10824463287028682,0.7299023290758828,0.6819445488015629,0.3961907164480323,0.17678893565844858,0.10841121495327102,0.13220599538816297
0.17006802721088435,0.13073698146513685,0.05373831775700917,0.8521091811414393,0.2408874801901743,0.10662096337723245,0.7315301778111696,0.6832970170561274,0.3973259334006054,0.17851773902585688,0.1105607476635514,0.13374327440430436
0.1636904761904762,0.12488967343336278,0.05046728971962597,0.8581885856079404,0.23335974643423132,0.10120873173371818,0.7277736038066616,0.6794650236681944,0.3948032290615539,0.17528562838244136,0.10598130841121495,0.12902163171186998
0.1597222222222222,0.12246248896734334,0.053271028037383344,0.8612903225806452,0.2266244057052298,0.09976546996211431,0.7226396193338342,0.6758584416560222,0.39120837537840564,0.17122669873722185,0.10093457943925233,0.12375096079938508
0.165391156462585,0.1277581641659312,0.05700934579439238,0.8558312655086848,0.23296354992076068,0.10481688616272775,0.7231404958677685,0.6769103614095724,0.3917129162462159,0.17197835237522552,0.10205607476635514,0.12386076644339519
0.17148526077097506,0.13305383936451895,0.05934579439252353,0.8502481389578164,0.24049128367670358,0.10950748692044017,0.7304032056098171,0.6815688631752949,0.39587537840565085,0.17708959711365002,0.10813084112149532,0.131217744592072
0.16964285714285715,0.13095763459841128,0.056542056074766145,0.8522332506203475,0.23930269413629154,0.10734259426303447,0.7329075882794891,0.6841235254339169,0.39808274470232086,0.17957005411906193,0.1105607476635514,0.1348413308444054
0.16298185941043083,0.1251103265666372,0.053271028037383344,0.8584367245657568,0.231378763866878,0.10193036261952003,0.7285249186075632,0.6808926290480126,0.3949293642785065,0.17558628983764282,0.10626168224299064,0.1292412429998902
0.15986394557823128,0.12268314210061786,0.05373831775700917,0.8610421836228288,0.2266244057052298,0.09994587768356482,0.7227648384673178,0.6759335787812758,0.3907669021190716,0.1710763680096212,0.10074766355140186,0.12254309871527394
0.16524943310657597,0.1277581641659312,0.05747663551401861,0.8558312655086848,0.23256735340729,0.10481688616272775,0.7241422489356374,0.6773611841610939,0.39183905146316844,0.17227901383042693,0.1025233644859813,0.1255078511035467
0.1727607709750567,0.1340467784642542,0.05934579439252353,0.8491315136476427,0.24207606973058635,0.11040952552769252,0.7299023290758828,0.6817191374258021,0.39524470232088793,0.17686410102224895,0.1080373831775701,0.1315471615241023
0.17035147392290248,0.13195057369814653,0.05794392523364484,0.8512406947890819,0.2396988906497623,0.10842504059173731,0.733533683946907,0.6836727026823952,0.3973890010090817,0.1782922429344558,0.11018691588785044,0.1346217195563852
0.16468253968253965,0.1268755516328332,0.055607476635514096,0.8565756823821341,0.23256735340729,0.10373443983402489,0.729526671675432,0.6805920805469982,0.39518163471241163,0.17536079374624172,0.10682242990654206,0.13099813330405183
0.1736111111111111,0.1343777581641659,0.05747663551401861,0.8485111662531017,0.24445324881141042,0.11040952552769252,0.7306536438767843,0.6825456458035914,0.3973890010090817,0.17896873120865905,0.11065420560747662,0.13352366311628416
0.19472789115646258,0.15489849955869373,0.07523364485981292,0.8277915632754344,0.2662440570522979,0.1306151903301461,0.7421738041572752,0.6929897062138403,0.4072906155398587,0.1915213469633193,0.12551401869158876,0.14681014604150652
0.2152777777777778,0.17828773168578999,0.10654205607476629,0.8055831265508686,0.2816957210776545,0.1556918636117626,0.7594540445780116,0.7082425426403185,0.420787083753784,0.2073060733613951,0.14495327102803737,0.16734380147139563
0.22902494331065762,0.19582965578111208,0.1355140186915889,0.7897022332506204,0.2888272583201268,0.17553671297131515,0.7727272727272726,0.7196633856788638,0.43283299697275474,0.22053517739025857,0.16214953271028035,0.1832656198528604
0.23724489795918366,0.206972639011474,0.15560747663551397,0.7799007444168735,0.2916006339144215,0.18870647663720008,0.7784873528675181,0.7255240814486437,0.4400857719475277,0.22865303668069753,0.17289719626168223,0.19084220928955747
0.24829931972789115,0.21988084730803178,0.17429906542056076,0.767741935483871,0.2991283676703645,0.20277827891033737,0.7844978712747307,0.7305582688406341,0.4439959636730575,0.23421527360192423,0.1797196261682243,0.19589326891402217
0.2623299319727891,0.2358781994704325,0.19532710280373827,0.752605459057072,0.30982567353407287,0.2199170124481327,0.7927623340846481,0.7393493124953039,0.45213168516649843,0.24376127480457008,0.19196261682242988,0.20786208411112328
0.282312925170068,0.2528684907325684,0.20140186915887845,0.7342431761786601,0.3351822503961965,0.235071261049973,0.8056599048334585,0.7494176872792846,0.4619702320887991,0.2548105832832231,0.20598130841121495,0.2224662347644669
0.2868480725623582,0.2587157987643425,0.21074766355140184,0.7290322580645162,0.33755942947702056,0.24156593902219012,0.8137991485098922,0.7556540686753324,0.4673309788092835,0.2613499699338545,0.21392523364485982,0.23037224113319424
0.2806122448979592,0.2568402471315093,0.22383177570093465,0.73287841191067,0.3232963549920761,0.24246797762944247,0.8127973954420235,0.7546021489217821,0.4665110998990918,0.26127480457005414,0.21308411214953268,0.23004282420116393
0.27650226757369617,0.25110326566637253,0.21308411214953257,0.7378411910669975,0.322107765451664,0.23579289193577485,0.8067868770348109,0.7489668645277632,0.460835015136226,0.2545099218280217,0.20542056074766352,0.22202701218842646
0.2780612244897959,0.25044130626654904,0.2051401869158879,0.7374689826302729,0.3276545166402536,0.23362799927836914,0.8020285499624342,0.7447591855135622,0.4579969727547931,0.2512026458208058,0.2009345794392523,0.21697595256396177
0.2723922902494331,0.2454766107678729,0.20280373831775714,0.7428039702233251,0.3205229793977813,0.22929821396355754,0.8011520160280491,0.7457359681418588,0.457744702320888,0.25015033072760073,0.19999999999999998,0.21686614691995165
0.26204648526077096,0.23256840247131508,0.18224299065420543,0.754590570719603,0.3149762282091917,0.21468518852606894,0.7965189080891559,0.7405515064993613,0.45282542885973764,0.2440619362597715,0.1920560747663551,0.20994839134731524
0.24163832199546484,0.2112753751103266,0.15934579439252342,0.7754342431761787,0.2963549920760697,0.192855854230561,0.7826195842724768,0.7273273724547299,0.44191473259334,0.23173481659651232,0.17710280373831774,0.19424618425387066
0.22392290249433108,0.19163724624889672,0.13457943925233645,0.7942928039702234,0.2816957210776545,0.17210896626375607,0.7667167543200601,0.7148546096626343,0.4292381432896064,0.21715273601924234,0.15803738317757007,0.1765674755682442
0.21258503401360546,0.17784642541924095,0.1130841121495327,0.8070719602977668,0.2749603803486529,0.15659390221901495,0.7563235662409216,0.7062138402584717,0.41958879919273456,0.20542693926638605,0.14261682242990653,0.16492807730317335
0.20620748299319727,0.16637246248896734,0.08644859813084123,0.8162531017369727,0.2777337559429477,0.14198087678152616,0.7499373904332581,0.7009542414907205,0.41384964682139247,0.19821106434155142,0.13467289719626166,0.15812012737454703
0.1889172335600907,0.14783759929391,0.06401869158878502,0.8342431761786601,0.2626782884310618,0.1224968428648746,0.7429251189581768,0.6929897062138403,0.4065338042381433,0.189792543595911,0.12429906542056074,0.14790820248160755
0.16609977324263037,0.12786849073256845,0.055140186915887866,0.8554590570719603,0.23454833597464345,0.10445607071982674,0.7310293012772351,0.6820196859268164,0.39593844601412714,0.17716476247745036,0.10869158878504671,0.13143735588009225
0.1597222222222222,0.12246248896734334,0.053271028037383344,0.8612903225806452,0.2266244057052298,0.09976546996211431,0.7228900576008014,0.6758584416560222,0.3910191725529768,0.1710012026458208,0.1008411214953271,0.12287251564730428
0.1651077097505669,0.12709620476610772,0.055140186915887866,0.8563275434243177,0.23335974643423132,0.10391484755547539,0.7236413724017029,0.6770606356600796,0.39196518668012104,0.17182802164762476,0.10214953271028036,0.12440979466344568
0.17148526077097506,0.13272285966460726,0.05794392523364484,0.8503722084367246,0.24128367670364498,0.10896626375608867,0.7297771099423992,0.6822450973025772,0.39581231079717455,0.17588695129284426,0.10775700934579438,0.13132755023608214
0.16921768707482993,0.13106796116504854,0.05841121495327107,0.8523573200992557,0.2377179080824089,0.10770340970593546,0.7320310543451038,0.6841235254339169,0.3973259334006054,0.17784125075165363,0.11084112149532709,0.1342923026243549
0.16241496598639454,0.124558693733451,0.052803738317757115,0.8589330024813897,0.2305863708399366,0.10138913945516868,0.7283996994740797,0.6805169434217446,0.39436175580221994,0.17430847865303667,0.10635514018691589,0.12880202042384978
0.15943877551020408,0.12224183583406881,0.05373831775700917,0.8615384615384617,0.2258320126782884,0.09976546996211431,0.7231404958677685,0.6765346757833044,0.3913975782038345,0.17032471437161756,0.10093457943925233,0.12298232129131435
0.1635487528344671,0.12720653133274487,0.06121495327102804,0.8569478908188586,0.2286053882725832,0.10517770160562875,0.7231404958677685,0.6773611841610939,0.39246972754793136,0.17197835237522552,0.10214953271028036,0.12506862852750628
0.1709183673469388,0.1331641659311562,0.06168224299065427,0.8503722084367246,0.2389064976228209,0.11022911780624202,0.7302779864763336,0.6822450973025772,0.3960645812310797,0.17686410102224895,0.10747663551401868,0.1315471615241023
0.17049319727891155,0.1320609002647838,0.0588785046728973,0.8511166253101737,0.23930269413629154,0.10860544831318782,0.7336589030803906,0.6841235254339169,0.397452068617558,0.17821707757065544,0.1105607476635514,0.1348413308444054
0.1631235827664399,0.12533097969991175,0.0542056074766354,0.8581885856079404,0.23098256735340725,0.10229117806242104,0.7281492612071124,0.6807423547975054,0.3946140262361251,0.1745339747444378,0.10607476635514017,0.1292412429998902
0.16071428571428573,0.12268314210061786,0.05140186915887843,0.8606699751861043,0.22900158478605384,0.09958506224066381,0.722389181066867,0.6766098129085582,0.39127144298688193,0.1710012026458208,0.10149532710280372,0.12375096079938508
0.16524943310657597,0.12797881729920563,0.0588785046728973,0.8558312655086848,0.23177496038034864,0.10535810932707926,0.7240170298021538,0.6775114584116012,0.39196518668012104,0.17197835237522552,0.10233644859813083,0.12539804545953664
0.17148526077097506,0.13360547219770524,0.06168224299065427,0.8498759305210919,0.2396988906497623,0.11040952552769252,0.7287753568745304,0.6821699601773236,0.3960015136226034,0.1765634395670475,0.10766355140186915,0.1315471615241023
0.17049319727891155,0.1320609002647838,0.05841121495327107,0.8511166253101737,0.2396988906497623,0.10860544831318782,0.7315301778111696,0.6838229769329026,0.397452068617558,0.17874323511725795,0.10953271028037383,0.13451191391237508
0.16340702947845806,0.12533097969991175,0.052803738317757115,0.8580645161290323,0.23177496038034864,0.10193036261952003,0.7277736038066616,0.6802163949207303,0.3942356205852674,0.17498496692723994,0.105607476635514,0.1289118260678599
0.15986394557823128,0.12279346866725512,0.0542056074766354,0.8610421836228288,0.2266244057052298,0.10012628540501532,0.722389181066867,0.6760087159065293,0.3910191725529768,0.17092603728202044,0.10065420560747664,0.12243329307126387
0.16524943310657597,0.12720653133274487,0.055140186915887866,0.8562034739454095,0.23375594294770205,0.1040952552769259,0.7240170298021538,0.6774363212863475,0.3922174571140262,0.17227901383042693,0.10242990654205605,0.1248490172394861
0.17049319727891155,0.13272285966460726,0.06168224299065427,0.8507444168734493,0.23811410459587953,0.10968789464189067,0.7294014525419483,0.6819445488015629,0.39568617558022195,0.17671377029464821,0.10775700934579438,0.13077852201603163
0.16454081632653061,0.12499999999999996,0.048130841121495224,0.857816377171216,0.23573692551505546,0.10084791629081717,0.7309040821437515,0.6829213314298594,0.3934788092835519,0.17686410102224895,0.10485981308411213,0.12660590754364773
0.13038548752834467,0.0938879082082966,0.028971962616822215,0.8901985111662531,0.19572107765451666,0.07180227313729026,0.721136989732031,0.6684950033811706,0.37531533804238143,0.1597263980757667,0.0761682242990654,0.09487207642472824
0.062358276643990934,0.04479258605472199,0.045327102803738244,0.9475186104218363,0.0938985736925515,0.0348186902399422,0.7044828449787127,0.6430986550454579,0.3495837537840565,0.1211665664461816,0.036448598130841114,0.045239925332162076
0.014314058956916098,0.01037069726390109,0.05794392523364484,0.9879652605459057,0.021394611727416715,0.00902038607252385,0.7161282243926872,0.6384401532797356,0.34920534813319876,0.10290138304269393,0.005233644859813089,0.008564840232787965
0.030045351473922902,0.023278905560458987,0.06074766355140181,0.9738213399503722,0.04239302694136287,0.020205664802453567,0.7798647633358378,0.6857014050642422,0.41246215943491416,0.1478502705953097,0.021214953271028056,0.021851323158010322
0.13633786848072563,0.11584289496910855,0.10280373831775685,0.8753101736972706,0.1727416798732171,0.10391484755547539,0.8586275982970197,0.7674505973401458,0.5399848637739656,0.2715724594107035,0.11588785046728971,0.11837048424289007
0.2929421768707483,0.2689761694616064,0.2341121495327101,0.7205955334987594,0.3363708399366085,0.25437488724517404,0.9177310293012771,0.8534074686302501,0.6865539858728557,0.45392363199037883,0.28934579439252334,0.27396508180520474
0.5024092970521542,0.4782656663724625,0.4299065420560746,0.511166253101737,0.545958795562599,0.4634674364062782,0.9631855747558226,0.9339544669020963,0.8235998990918264,0.6519843656043295,0.49897196261682236,0.47754474579993406
0.7199546485260772,0.7081862312444838,0.6869158878504671,0.2867245657568239,0.7412836767036449,0.7010644055565577,0.9913598797896319,0.989781350965512,0.9547805247225024,0.8647775105231509,0.7414018691588785,0.7042934006807949
0.9229024943310657,0.9181376875551633,0.9070093457943924,0.07990074441687352,0.931458003169572,0.9150279631968247,0.9435261707988981,0.9641595912540385,0.9939455095862764,0.9941371016235718,0.9485981308411214,0.9147908202481608
1.0,1.0,0.9995327102803737,0.0,1.0,1.0,0.7756073127973954,0.8221504245247576,0.8654767911200806,0.9392663860493085,0.9913084112149532,0.9991215548479192
0.9267290249433107,0.9256398940864963,0.9261682242990653,0.07394540942928031,0.9286846275752774,0.9249503878766012,0.5444527923866767,0.609737771432865,0.637991927346115,0.7751052315093205,0.8739252336448597,0.9269792467332822
0.7850056689342403,0.7784642541924097,0.769626168224299,0.2187344913151366,0.7967511885895404,0.7743099404654519,0.32181317305284246,0.3746337065143887,0.407353683148335,0.5781719783523752,0.7106542056074765,0.7791808498956846
0.5973639455782314,0.5803177405119153,0.5495327102803738,0.41228287841191075,0.62797147385103,0.5699079920620601,0.1026796894565489,0.12299947404012318,0.15457870837537838,0.3490679494888755,0.4855140186915887,0.5783463270012078
0.39880952380952384,0.36672550750220656,0.2995327102803738,0.6192307692307693,0.456418383518225,0.3469240483492694,0.006135737540696164,0.0067623412728228865,0.013874873864783081,0.1531870114251353,0.2616822429906542,0.3648841550455693
0.23015873015873017,0.18722418358340687,0.09532710280373839,0.7940446650124069,0.3074484944532488,0.16074327981237602,0.09892311545204106,0.06424224209181754,0.03191220988900103,0.029088995790739626,0.11476635514018692,0.19018337542549688
0.13775510204081634,0.09576345984112973,0.012149532710280363,0.8859801488833747,0.21315372424722664,0.06999819592278556,0.2794891059353869,0.2195506799909836,0.12651362260343085,0.005336740829825608,0.043364485981308404,0.10047216426924342
0.08602607709750566,0.05494263018534866,0.010747663551401672,0.93151364764268,0.14144215530903323,0.03644235973299656,0.45216629100926614,0.3835750244195657,0.23089051463168514,0.035553217077570656,0.021214953271028056,0.05600087844515208
0.07936507936507936,0.05748014121800527,0.0429906542056075,0.9330024813895783,0.11885895404120439,0.04456070719826805,0.5856498873027798,0.5202494552558419,0.30922048435923305,0.09117558628983763,0.03140186915887849,0.05589107280114198
0.12386621315192745,0.08804060017652253,0.025700934579439415,0.8962779156327544,0.18819334389857365,0.06620963377232549,0.6691710493363385,0.6116161995642048,0.3579717457114026,0.13619963920625375,0.0614018691588785,0.08630723619194026
0.16043083900226757,0.11617387466902032,0.024299065420560727,0.8645161290322582,0.24009508716323294,0.0889410066750856,0.718382168795392,0.6626343076113907,0.38534308779011095,0.16476247745039085,0.0925233644859813,0.12001756890304163
0.1635487528344671,0.12356575463371575,0.044859813084112014,0.8590570719602978,0.23534072900158473,0.09904383907631246,0.7268970698722764,0.6767600871590653,0.39240665993945506,0.17242934455802766,0.102803738317757,0.12638629625562756
0.15943877551020408,0.12301412180052955,0.05700934579439238,0.861166253101737,0.22464342313787639,0.10084791629081717,0.7228900576008014,0.6757833045307686,0.3910191725529768,0.1704750450992183,0.10074766355140186,0.12232348742725375
0.16468253968253965,0.12676522506619595,0.055140186915887866,0.8566997518610422,0.23256735340729,0.10373443983402489,0.7238918106686701,0.6773611841610939,0.39228052472250247,0.1723541791942273,0.1025233644859813,0.12462940595146592
0.1727607709750567,0.1329435127978817,0.05467289719626163,0.8496277915632755,0.24445324881141042,0.10860544831318782,0.7290257951414976,0.6821699601773236,0.3961907164480323,0.1773902585688515,0.10831775700934579,0.13132755023608214
0.17148526077097506,0.1320609002647838,0.05467289719626163,0.8507444168734493,0.242472266244057,0.10788381742738581,0.7325319308790382,0.6841986625591704,0.3978304742684157,0.17919422730006013,0.1105607476635514,0.13440210826836496
0.1641156462585034,0.12566195939982353,0.052336448598130886,0.8575682382133996,0.23335974643423132,0.10229117806242104,0.7277736038066616,0.6802915320459838,0.39455095862764883,0.17468430547203848,0.10579439252336448,0.1289118260678599
0.16057256235827663,0.12356575463371575,0.055140186915887866,0.8602977667493797,0.22702060221870043,0.10102832401226768,0.7216378662659654,0.6757081674055151,0.3905146316851665,0.1710763680096212,0.09999999999999999,0.12199407049522344
0.16468253968253965,0.1277581641659312,0.059813084112149355,0.8560794044665013,0.23098256735340725,0.10535810932707926,0.7233909341347358,0.6767600871590653,0.3913975782038345,0.1722038484666266,0.1019626168224299,0.12419018337542549
0.171343537414966,0.13305383936451895,0.059813084112149355,0.8502481389578164,0.24009508716323294,0.10968789464189067,0.729526671675432,0.6818694116763092,0.396127648839556,0.17663860493084785,0.10775700934579438,0.13231580103217302
0.1709183673469388,0.13195057369814653,0.05700934579439238,0.8511166253101737,0.2408874801901743,0.10824463287028682,0.7326571500125219,0.6839732511834097,0.3975782038345106,0.17896873120865905,0.1105607476635514,0.13539035906445593
0.1635487528344671,0.12566195939982353,0.0542056074766354,0.857816377171216,0.23177496038034864,0.10247158578387153,0.7290257951414976,0.6801412577954767,0.39455095862764883,0.17528562838244136,0.10644859813084111,0.12935104864390026
0.15986394557823128,0.12279346866725512,0.05467289719626163,0.8610421836228288,0.22622820919175904,0.10030669312646583,0.724267468069121,0.6763092644075437,0.3913975782038345,0.17152736019242334,0.10130841121495326,0.12309212693532447
0.16439909297052155,0.1266548984995587,0.055607476635514096,0.8568238213399505,0.23217115689381929,0.10373443983402489,0.7248935637365389,0.6769103614095724,0.3922174571140262,0.1722038484666266,0.10289719626168223,0.12528823981552653
0.16964285714285715,0.13239187996469548,0.06261682242990634,0.8513647642679901,0.23652931854199685,0.10968789464189067,0.73015276734285,0.6818694116763092,0.39587537840565085,0.17671377029464821,0.10859813084112149,0.13110793894806194
0.1697845804988662,0.13195057369814653,0.06074766355140181,0.8516129032258065,0.2377179080824089,0.10896626375608867,0.7316553969446532,0.6838229769329026,0.397452068617558,0.17844257366205654,0.11112149532710279,0.13319424618425388
0.16383219954648526,0.12577228596646067,0.0542056074766354,0.8575682382133996,0.23217115689381929,0.10265199350532203,0.7280240420736288,0.6800661206702231,0.3948032290615539,0.17506013229104028,0.10672897196261681,0.1292412429998902
0.15986394557823128,0.1225728155339806,0.053271028037383344,0.861166253101737,0.22702060221870043,0.09976546996211431,0.7237665915351865,0.6759335787812758,0.3913345105953582,0.17130186410102224,0.10205607476635514,0.12276271000329417
0.16524943310657597,0.12753751103265668,0.056542056074766145,0.8559553349875932,0.23296354992076068,0.10463647844127724,0.7240170298021538,0.6763844015327972,0.3917759838546922,0.17152736019242334,0.10205607476635514,0.12309212693532447
0.17247732426303855,0.13371579876434242,0.0588785046728973,0.8493796526054591,0.24207606973058635,0.11004871008479168,0.7302779864763336,0.6815688631752949,0.3960015136226034,0.17663860493084785,0.1072897196261682,0.13132755023608214
0.17049319727891155,0.13250220653133274,0.060280373831775584,0.8509925558312657,0.2389064976228209,0.10932707919898967,0.7331580265464563,0.6834472913066345,0.3980196770938446,0.17896873120865905,0.10953271028037383,0.1349511364884155
0.16383219954648526,0.12643424536628425,0.056542056074766145,0.857196029776675,0.23098256735340725,0.10373443983402489,0.7281492612071124,0.6798407092944624,0.3951185671039354,0.1758117859290439,0.10588785046728971,0.12902163171186998
0.15986394557823128,0.12290379523389228,0.0542056074766354,0.8610421836228288,0.22622820919175904,0.10030669312646583,0.7225144002003506,0.6755578931550079,0.3917759838546922,0.17130186410102224,0.10233644859813083,0.12375096079938508
0.1649659863945578,0.1266548984995587,0.05373831775700917,0.8565756823821341,0.23375594294770205,0.10337362439112388,0.7241422489356374,0.6775865955368547,0.39259586276488395,0.17265484064942874,0.1030841121495327,0.12561765674755682
0.1707766439909297,0.1320609002647838,0.05747663551401861,0.8511166253101737,0.24009508716323294,0.10842504059173731,0.7290257951414976,0.6821699601773236,0.3960645812310797,0.17686410102224895,0.10831775700934579,0.13099813330405183
0.16865079365079363,0.13161959399823475,0.0621495327102805,0.8522332506203475,0.23534072900158473,0.10896626375608867,0.7320310543451038,0.6838981140581561,0.39770433905146313,0.17904389657245942,0.11074766355140186,0.1341824969803448
0.16184807256235828,0.12610326566637248,0.06168224299065427,0.8583126550868487,0.2258320126782884,0.10445607071982674,0.7285249186075632,0.6798407092944624,0.39442482341069623,0.17513529765484065,0.10607476635514017,0.12880202042384978
0.159297052154195,0.12312444836716681,0.05747663551401861,0.8610421836228288,0.22424722662440572,0.10120873173371818,0.7232657150012521,0.6762341272822902,0.3909561049445005,0.17122669873722185,0.10186915887850466,0.12364115515537497
0.16468253968253965,0.12742718446601942,0.05794392523364484,0.8563275434243177,0.231378763866878,0.10481688616272775,0.7227648384673178,0.6765346757833044,0.3917759838546922,0.1717528562838244,0.10261682242990654,0.1232019325793346
0.1712018140589569,0.13228155339805822,0.05700934579439238,0.8507444168734493,0.2408874801901743,0.10860544831318782,0.7290257951414976,0.681343451799534,0.39587537840565085,0.17693926638604932,0.10841121495327102,0.13011968815197097
0.17346938775510204,0.13448808473080315,0.0588785046728973,0.8485111662531017,0.2436608557844691,0.11058993324914303,0.7327823691460055,0.6863776391915245,0.4012361251261352,0.18280216476247746,0.1130841121495327,0.13604919292851653
0.17998866213151926,0.13967343336275373,0.05934579439252353,0.8428039702233252,0.2523771790808241,0.11491971856395446,0.7355371900826446,0.6920129235855434,0.41315590312815337,0.19332531569452796,0.11906542056074765,0.1407708356209509
0.19246031746031747,0.1507060900264784,0.06542056074766371,0.8310173697270472,0.26743264659271,0.1252029586866318,0.74129727022289,0.699226087609888,0.4278506559031281,0.20790739627179797,0.12906542056074766,0.14681014604150652
0.213718820861678,0.17166813768755518,0.08364485981308425,0.8100496277915633,0.2892234548335974,0.14576943893198624,0.7516904583020285,0.7126004959050267,0.44696014127144296,0.2267739025856885,0.14514018691588784,0.16097507411880968
0.2352607709750567,0.1929611650485437,0.10280373831775685,0.7885856079404467,0.3110142630744849,0.16705755006314266,0.7663410969196093,0.730407994590127,0.47023208879919265,0.2502254960914011,0.16579439252336448,0.18074009004062808
0.25637755102040816,0.2112753751103266,0.11074766355140196,0.7691066997518611,0.3371632329635499,0.18347465271513613,0.7796143250688705,0.7464122022691411,0.4928733602421796,0.27307576668671074,0.18355140186915886,0.1979795761502141
0.2655895691609977,0.22087378640776706,0.1210280373831774,0.7596774193548388,0.3458795562599049,0.193216669673462,0.7863761582769847,0.755353520174318,0.5087663975782037,0.28818400481058326,0.19383177570093454,0.20599538816295157
0.2790532879818594,0.23411297440423653,0.13271028037383192,0.7462779156327545,0.3597464342313787,0.20638643333934692,0.7906336088154269,0.7642197009542414,0.5253531786074672,0.3036680697534576,0.20429906542056073,0.2143406171077193
0.30144557823129253,0.25672992056487204,0.15420560747663528,0.723697270471464,0.3819334389857369,0.2289373985206567,0.8019033308289506,0.7784206176271696,0.5462916246215942,0.324789536981359,0.22121495327102803,0.22949379598111339
0.3249716553287982,0.27967784642541926,0.17429906542056076,0.700620347394541,0.40649762282091917,0.2516687714234168,0.8185574755822689,0.7970546246900594,0.5689959636730575,0.34861695730607334,0.2425233644859813,0.24925881190293178
0.338718820861678,0.2932480141218005,0.1864485981308411,0.686848635235732,0.42036450079239296,0.2651993505322028,0.8307037315301777,0.8105041701104515,0.5893037336024217,0.3690619362597715,0.2580373831775701,0.26298451740419454
0.3470804988662131,0.30295675198587824,0.200467289719626,0.6777915632754343,0.4263074484944533,0.27566299837633046,0.8334585524668169,0.8163648658802313,0.6030524722502523,0.3825165363800361,0.26682242990654204,0.2694630504007906
0.3595521541950113,0.3145410414827891,0.20794392523364486,0.6658808933002482,0.4401743264659271,0.2866678693848097,0.8370899073378412,0.823352618528815,0.615981331987891,0.39446782922429346,0.27495327102803735,0.2751729438893159
0.37769274376417233,0.33075904677846424,0.21682242990654202,0.6487593052109182,0.4619651347068145,0.3016417102651993,0.8468569997495617,0.835750244195657,0.6312436932391523,0.4109290438965724,0.2885046728971962,0.28747117601844735
0.39611678004535145,0.3473080317740512,0.22663551401869164,0.6313895781637717,0.4833597464342313,0.31697636658848993,0.8585023791635361,0.8491246524907956,0.6488395560040363,0.42776608538785327,0.3049532710280374,0.30086746458767977
0.4040532879818594,0.3552515445719329,0.23364485981308386,0.6234491315136477,0.4916798732171156,0.32491430633231094,0.8681442524417731,0.8585167931474941,0.6627774974772956,0.44159651232711966,0.31663551401869156,0.3137147249368617
0.4083049886621315,0.35922330097087385,0.23644859813084126,0.6193548387096774,0.4964342313787638,0.328702868482771,0.8687703481091911,0.8603952212788338,0.6684535822401614,0.4483613950691521,0.31822429906542055,0.31580103217305366
0.411281179138322,0.362864077669903,0.2420560747663552,0.6160049627791564,0.4984152139461172,0.3326718383546816,0.8677685950413222,0.8617476895333984,0.6722376387487385,0.45151834034876726,0.3200934579439252,0.3160206434610739
0.41581632653061223,0.3716902030008826,0.264485981308411,0.6090570719602978,0.4948494453248811,0.34421793252751215,0.8705234159779615,0.8662559170486137,0.6797426841574167,0.4582080577269994,0.325607476635514,0.3228285933897002
0.4247448979591837,0.3791924095322154,0.26682242990654215,0.6009925558312655,0.5063391442155308,0.3508930182211798,0.8770348109191084,0.8717409271921256,0.6867431886982844,0.46504810583283224,0.3327102803738317,0.32996596025035685
0.4241780045351474,0.3779788172992057,0.26355140186915893,0.6018610421836229,0.5071315372424722,0.3492693487281256,0.8796644127222639,0.8749718235780298,0.688193743693239,0.4672279013830427,0.3344859813084112,0.33238168441857907
0.41723356009070295,0.37157987643424534,0.2593457943925233,0.6084367245657569,0.49920760697305855,0.3433158939202598,0.8749060856498874,0.8698624990607858,0.6847250252270434,0.4632441371016236,0.3303738317757009,0.326891402218074
0.41156462585034015,0.36584289496910855,0.25373831775700934,0.6141439205955336,0.4936608557844691,0.337362439112394,0.869396443776609,0.8643023517920204,0.67696770938446,0.45617859290438967,0.3225233644859813,0.31865597891731634
0.4151077097505669,0.3659532215357458,0.24299065420560725,0.6126550868486352,0.5031695721077654,0.3353779541764387,0.8678938141748058,0.8618979637839056,0.6714808274470231,0.4512928442573662,0.31981308411214954,0.31470297573295264
0.41241496598639454,0.3639673433362754,0.24299065420560725,0.6148883374689827,0.4996038034865293,0.333934692404835,0.8697721011770598,0.8612968667818769,0.6682643794147326,0.4480607336139507,0.3187850467289719,0.3164598660371143
0.40150226757369617,0.3524933804060018,0.23037383177570106,0.6261786600496279,0.48930269413629157,0.3220277827891034,0.8673929376408716,0.8568637763919152,0.6596241170534812,0.43881539386650625,0.31401869158878504,0.31184802898869
0.3859126984126984,0.33759929390997356,0.21869158878504652,0.6413151364764268,0.472662440570523,0.3075951650730651,0.8562484347608313,0.8461191674806521,0.6444878910191725,0.4237071557426338,0.29971962616822423,0.2977929065553969
0.3706065759637189,0.32281553398058255,0.20654205607476617,0.6563275434243178,0.456418383518225,0.2931625473570268,0.8434760831455046,0.832293936433992,0.6275857719475276,0.40671978352375227,0.2837383177570093,0.28340836719007356
0.3619614512471655,0.3142100617828773,0.19859813084112146,0.6648883374689827,0.44770206022187,0.2846833844488543,0.836213373403456,0.8223006987752648,0.6134586276488394,0.39228803367408294,0.2729906542056074,0.27396508180520474
0.3518990929705215,0.3060458958517211,0.19719626168224277,0.6739454094292805,0.4342313787638668,0.27764748331228567,0.8338342098672678,0.8165151401307386,0.6009712411705347,0.381464221286831,0.26635514018691586,0.2696826616888108
0.33460884353741494,0.2899382171226832,0.18598130841121488,0.6905707196029777,0.41481774960380347,0.26231282698899505,0.8280741297270223,0.8080997821023367,0.5850151362260342,0.36530366806975345,0.25532710280373827,0.26122762710003294
0.3136337868480726,0.2682038834951457,0.1626168224299066,0.7119106699751862,0.39540412044374007,0.24012267725058625,0.8156774355121462,0.7927718085506047,0.5632568113017153,0.3433553818400481,0.23775700934579438,0.24387833534643677
0.29435941043083896,0.2485657546337158,0.14345794392523362,0.73151364764268,0.3763866877971473,0.2202778278910337,0.7998998246932131,0.7750394469907581,0.5413723511604439,0.3205051112447384,0.2170093457943925,0.2244427363566487
0.2800453514739229,0.23433362753751105,0.13037383177570078,0.7457816377171216,0.3621236133122029,0.2060256178964459,0.7908840470823941,0.7629423698249304,0.5223259334006054,0.30148827420324714,0.2022429906542056,0.21214450422751724
0.2695578231292517,0.2247352162400706,0.1242990654205606,0.7557071960297768,0.3502377179080824,0.19718563954537258,0.7860005008765338,0.7552032459238109,0.5060544904137234,0.28690619362597714,0.19196261682242988,0.20522674865488086
0.25170068027210885,0.20774492497793473,0.111682242990654,0.7730769230769232,0.33042789223454827,0.18076853689337907,0.7784873528675181,0.7434818543842513,0.48751261352169517,0.269167167769092,0.18046728971962614,0.19380696167783024
0.22505668934240364,0.1822594880847308,0.09112149532710272,0.7991315136476428,0.3019017432646593,0.1558722713332131,0.7639619333834209,0.7257494928244045,0.4643037336024218,0.24443776307877327,0.16065420560747662,0.17393214011200173
0.20620748299319727,0.16405560458958515,0.07616822429906538,0.8176178660049629,0.2816957210776545,0.13819231463106624,0.7474330077635862,0.7086933653918401,0.4421039354187689,0.22241431148526758,0.1405607476635514,0.1560338201383551
0.1937358276643991,0.15169902912621355,0.06495327102803748,0.8300248138957816,0.26901743264659267,0.12592458957243366,0.7390433258201853,0.6978736193553234,0.42482341069626633,0.2051262778111846,0.12700934579439252,0.14483364444932467
0.18537414965986393,0.1437555163283318,0.0588785046728973,0.838089330024814,0.259904912836767,0.11834746527151367,0.735411970949161,0.691562100834022,0.410443995963673,0.19219783523752257,0.11850467289719625,0.1398923904688701
0.17247732426303855,0.13305383936451895,0.056074766355140325,0.8497518610421837,0.24326465927099838,0.10896626375608867,0.7327823691460055,0.6853257194379743,0.39984863773965684,0.18152435357787133,0.1125233644859813,0.135500164708466
0.1636904761904762,0.1251103265666372,0.051869158878504656,0.8580645161290323,0.23256735340729,0.10174995489806968,0.728900576008014,0.6799158464197159,0.39448789101917253,0.17551112447384248,0.10654205607476634,0.1292412429998902
0.159297052154195,0.12235216240070608,0.0542056074766354,0.8615384615384617,0.22543581616481775,0.09994587768356482,0.7225144002003506,0.6756330302802614,0.39108224016145304,0.17115153337342154,0.1011214953271028,0.12331173822334465
0.1641156462585034,0.12709620476610772,0.05841121495327107,0.8566997518610422,0.2305863708399366,0.10445607071982674,0.7226396193338342,0.6768352242843189,0.39202825428859733,0.17167769092002405,0.10214953271028036,0.12462940595146592
0.171343537414966,0.1329435127978817,0.0588785046728973,0.8503722084367246,0.24049128367670358,0.10932707919898967,0.7297771099423992,0.6817191374258021,0.39581231079717455,0.17701443174984965,0.10775700934579438,0.1304491050840013
0.16907596371882083,0.13195057369814653,0.06261682242990634,0.8518610421836229,0.23573692551505546,0.10932707919898967,0.7332832456799399,0.6839732511834097,0.39713673057517657,0.17904389657245942,0.11009345794392522,0.1339628856923246
0.16227324263038548,0.12533097969991175,0.05700934579439238,0.858560794044665,0.2286053882725832,0.10283240122677254,0.728274480340596,0.6799909835449696,0.3941725529767911,0.17528562838244136,0.10635514018691589,0.1289118260678599
0.15915532879818592,0.1225728155339806,0.056074766355140325,0.8615384615384617,0.22464342313787639,0.10030669312646583,0.722389181066867,0.6759335787812758,0.3908299697275479,0.17070054119061936,0.10149532710280372,0.1232019325793346
0.16454081632653061,0.12731685789938216,0.05794392523364484,0.8564516129032258,0.231378763866878,0.10463647844127724,0.7232657150012521,0.6767600871590653,0.39240665993945506,0.17182802164762476,0.10186915887850466,0.12429998901943562
0.17063492063492064,0.13272285966460726,0.06121495327102804,0.8507444168734493,0.23851030110935026,0.10968789464189067,0.7286501377410468,0.6818694116763092,0.39574924318869825,0.17626277811184604,0.1072897196261682,0.1304491050840013
0.16907596371882083,0.13139894086496032,0.060280373831775584,0.8521091811414393,0.2369255150554675,0.10842504059173731,0.7322814926120711,0.6841986625591704,0.3969475277497477,0.17814191220685507,0.11065420560747662,0.13286482925222357
0.16298185941043083,0.1251103265666372,0.05373831775700917,0.8583126550868487,0.23098256735340725,0.10211077034097053,0.7283996994740797,0.6802915320459838,0.39455095862764883,0.17513529765484065,0.10691588785046728,0.12759415833973864
0.15958049886621317,0.12246248896734334,0.05373831775700917,0.8614143920595534,0.22622820919175904,0.09976546996211431,0.7228900576008014,0.6763092644075437,0.3910191725529768,0.1713770294648226,0.1014018691588785,0.12309212693532447
0.16397392290249435,0.1265445719329214,0.056542056074766145,0.8570719602977668,0.23098256735340725,0.10373443983402489,0.7243926872026045,0.6773611841610939,0.3913345105953582,0.17182802164762476,0.10186915887850466,0.12419018337542549
0.1707766439909297,0.1329435127978817,0.06121495327102804,0.8506203473945411,0.23851030110935026,0.10986830236334118,0.73015276734285,0.6823953715530843,0.39574924318869825,0.17701443174984965,0.10878504672897196,0.13132755023608214
0.16964285714285715,0.13128861429832306,0.05747663551401861,0.8519851116625311,0.2389064976228209,0.10770340970593546,0.7327823691460055,0.6839732511834097,0.3975782038345106,0.17896873120865905,0.11149532710280373,0.13330405182826394
0.16298185941043083,0.12488967343336278,0.052336448598130886,0.858560794044665,0.23177496038034864,0.10156954717661917,0.728274480340596,0.6803666691712374,0.3947401614530776,0.17513529765484065,0.10691588785046728,0.12814318655978918
0.15887188208616781,0.12180052956751987,0.053271028037383344,0.8620347394540944,0.22543581616481775,0.09922424679776297,0.721763085399449,0.6761589901570365,0.39108224016145304,0.17115153337342154,0.10205607476635514,0.12199407049522344
0.16439909297052155,0.12720653133274487,0.05794392523364484,0.8565756823821341,0.23098256735340725,0.10463647844127724,0.7237665915351865,0.6770606356600796,0.3917759838546922,0.17212868310282622,0.1025233644859813,0.12276271000329417
0.1707766439909297,0.13272285966460726,0.06074766355140181,0.8506203473945411,0.2389064976228209,0.10950748692044017,0.7309040821437515,0.68209482305207,0.396127648839556,0.17708959711365002,0.10813084112149532,0.13022949379598112
0.1689342403628118,0.13184024713150927,0.06261682242990634,0.8519851116625311,0.23534072900158473,0.10932707919898967,0.7329075882794891,0.6843489368096776,0.39764127144298683,0.17911906193625976,0.1105607476635514,0.1341824969803448
0.16198979591836735,0.12577228596646067,0.059813084112149355,0.8584367245657568,0.22702060221870043,0.10373443983402489,0.7285249186075632,0.6799909835449696,0.39518163471241163,0.17536079374624172,0.10644859813084111,0.1285824091358296
0.15943877551020408,0.12301412180052955,0.056542056074766145,0.861166253101737,0.22503961965134703,0.10084791629081717,0.7226396193338342,0.6755578931550079,0.39127144298688193,0.17032471437161756,0.1008411214953271,0.12287251564730428
0.16482426303854875,0.1277581641659312,0.0588785046728973,0.8560794044665013,0.231378763866878,0.10517770160562875,0.7233909341347358,0.6769103614095724,0.3917759838546922,0.17205351773902589,0.10177570093457944,0.12462940595146592
0.17020975056689344,0.13305383936451895,0.0635514018691588,0.8507444168734493,0.2369255150554675,0.11040952552769252,0.7292762334084647,0.6822450973025772,0.39574924318869825,0.17663860493084785,0.10794392523364485,0.131217744592072
0.169359410430839,0.1311782877316858,0.05841121495327107,0.8522332506203475,0.23811410459587953,0.10788381742738581,0.7317806160781366,0.6836727026823952,0.397452068617558,0.177916416115454,0.1097196261682243,0.13297463489623365
0.16298185941043083,0.12533097969991175,0.055140186915887866,0.8581885856079404,0.2305863708399366,0.10247158578387153,0.7286501377410468,0.6800661206702231,0.3949924318869828,0.17460914010823814,0.10598130841121495,0.12803338091577907
0.159297052154195,0.12312444836716681,0.05747663551401861,0.8610421836228288,0.22424722662440572,0.10120873173371818,0.7238918106686701,0.6763092644075437,0.39202825428859733,0.17145219482862298,0.10121495327102803,0.1232019325793346
0.16425736961451246,0.1277581641659312,0.06074766355140181,0.8563275434243177,0.22979397781299524,0.1055385170485296,0.7248935637365389,0.6768352242843189,0.39234359233097876,0.1723541791942273,0.10214953271028036,0.12364115515537497
0.16950113378684808,0.1320609002647838,0.06121495327102804,0.8516129032258065,0.2369255150554675,0.10914667147753918,0.729526671675432,0.68209482305207,0.3962537840565086,0.17716476247745036,0.10775700934579438,0.13033929943999123
0.1697845804988662,0.1315092674315975,0.05794392523364484,0.8517369727047146,0.2389064976228209,0.10806422514883632,0.7317806160781366,0.6835975655571417,0.3975151362260343,0.17874323511725795,0.10943925233644858,0.13264521796420334
0.1631235827664399,0.12533097969991175,0.0542056074766354,0.8581885856079404,0.23098256735340725,0.10229117806242104,0.7291510142749812,0.6794650236681944,0.39448789101917253,0.17528562838244136,0.10523364485981308,0.12792357527176895
0.15986394557823128,0.12279346866725512,0.0542056074766354,0.8610421836228288,0.22622820919175904,0.10030669312646583,0.7226396193338342,0.675332481779247,0.39108224016145304,0.1710763680096212,0.1005607476635514,0.12199407049522344
0.1651077097505669,0.12731685789938216,0.056074766355140325,0.8562034739454095,0.23296354992076068,0.10427566299837623,0.7231404958677685,0.6775114584116012,0.39246972754793136,0.17227901383042693,0.1019626168224299,0.12397057208740526
0.17020975056689344,0.13349514563106799,0.06542056074766371,0.8504962779156328,0.23613312202852613,0.11113115641349454,0.7300275482093664,0.6823202344278307,0.39650605449041365,0.17716476247745036,0.10747663551401868,0.13088832766004171
0.1697845804988662,0.13228155339805822,0.0621495327102805,0.8513647642679901,0.2369255150554675,0.10950748692044017,0.7332832456799399,0.6838981140581561,0.3978304742684157,0.17889356584485872,0.10990654205607475,0.13341385747227405
0.16397392290249435,0.12566195939982353,0.052803738317757115,0.8576923076923078,0.23256735340729,0.10229117806242104,0.7273979464062108,0.6799909835449696,0.3946140262361251,0.17506013229104028,0.10551401869158877,0.1282529922037993
0.16000566893424037,0.12312444836716681,0.055140186915887866,0.8607940446650124,0.22622820919175904,0.10066750856936682,0.722389181066867,0.6763092644075437,0.3917129162462159,0.17085087191822007,0.10093457943925233,0.12287251564730428
0.1641156462585034,0.12753751103265668,0.060280373831775584,0.8565756823821341,0.22979397781299524,0.10535810932707926,0.7235161532682193,0.6773611841610939,0.3921543895055499,0.17190318701142512,0.10233644859813083,0.1245196003074558
0.1712018140589569,0.13239187996469548,0.05747663551401861,0.8507444168734493,0.2408874801901743,0.10860544831318782,0.7304032056098171,0.6823202344278307,0.39637991927346117,0.17701443174984965,0.10766355140186915,0.13110793894806194
0.17006802721088435,0.13184024713150927,0.0588785046728973,0.8514888337468983,0.2389064976228209,0.10842504059173731,0.7329075882794891,0.6838981140581561,0.3977674066599394,0.17889356584485872,0.10981308411214953,0.13341385747227405
0.16340702947845806,0.12588261253309793,0.055607476635514096,0.8576923076923078,0.23098256735340725,0.10301280894822304,0.7281492612071124,0.6799158464197159,0.3947401614530776,0.17536079374624172,0.10579439252336448,0.12770396398374875
0.16014739229024944,0.12246248896734334,0.051869158878504656,0.8610421836228288,0.2278129952456418,0.09940465451921347,0.7228900576008014,0.6761589901570365,0.39120837537840564,0.17122669873722185,0.10130841121495326,0.12265290435928405
0.16397392290249435,0.1268755516328332,0.05794392523364484,0.8569478908188586,0.2305863708399366,0.10427566299837623,0.7235161532682193,0.6769103614095724,0.39183905146316844,0.1722038484666266,0.10224299065420561,0.12364115515537497
0.17106009070294784,0.13283318623124452,0.059813084112149355,0.8504962779156328,0.2396988906497623,0.10950748692044017,0.7304032056098171,0.6816440003005484,0.3961907164480323,0.17776608538785327,0.10794392523364485,0.13088832766004171
0.17049319727891155,0.1320609002647838,0.0588785046728973,0.8511166253101737,0.23930269413629154,0.10860544831318782,0.734159779614325,0.6838981140581561,0.3978304742684157,0.17941972339146123,0.10990654205607475,0.13374327440430436
0.16255668934240364,0.12522065313327446,0.055607476635514096,0.858560794044665,0.22939778129952457,0.10247158578387153,0.7287753568745304,0.6798407092944624,0.39518163471241163,0.17490980156343958,0.10542056074766355,0.12836279784780935
0.16014739229024944,0.12191085613415713,0.04953271028037391,0.8614143920595534,0.2286053882725832,0.09868302363341146,0.7237665915351865,0.6762341272822902,0.3917129162462159,0.17130186410102224,0.1011214953271028,0.12298232129131435
0.16524943310657597,0.12731685789938216,0.056074766355140325,0.8560794044665013,0.23335974643423132,0.10427566299837623,0.725144002003506,0.6773611841610939,0.39228052472250247,0.17288033674082984,0.10158878504672897,0.12419018337542549
0.1707766439909297,0.13283318623124452,0.06074766355140181,0.8506203473945411,0.2389064976228209,0.10968789464189067,0.7310293012772351,0.6823202344278307,0.3962537840565086,0.1775405892964522,0.10794392523364485,0.13088832766004171
0.1697845804988662,0.13161959399823475,0.05841121495327107,0.8517369727047146,0.23851030110935026,0.10824463287028682,0.7327823691460055,0.6841235254339169,0.39764127144298683,0.17889356584485872,0.11065420560747662,0.13374327440430436
0.163265306122449,0.12566195939982353,0.055140186915887866,0.8579404466501241,0.23098256735340725,0.10283240122677254,0.7285249186075632,0.6803666691712374,0.39518163471241163,0.17506013229104028,0.10570093457943924,0.12869221477983966
0.15986394557823128,0.1225728155339806,0.053271028037383344,0.861166253101737,0.2266244057052298,0.09994587768356482,0.7218883045329325,0.6756330302802614,0.39120837537840564,0.17092603728202044,0.10037383177570093,0.12254309871527394
0.16482426303854875,0.12709620476610772,0.056074766355140325,0.8564516129032258,0.23256735340729,0.1040952552769259,0.7231404958677685,0.6772860470358404,0.3917129162462159,0.17182802164762476,0.1019626168224299,0.12440979466344568
0.1707766439909297,0.13250220653133274,0.0588785046728973,0.8508684863523573,0.2396988906497623,0.10896626375608867,0.7291510142749812,0.6823202344278307,0.3954969727547931,0.17708959711365002,0.10878504672897196,0.1304491050840013
0.16950113378684808,0.13195057369814653,0.06121495327102804,0.8516129032258065,0.2369255150554675,0.10896626375608867,0.7325319308790382,0.684273799684424,0.3978304742684157,0.17941972339146123,0.11149532710280373,0.13330405182826394
0.16184807256235828,0.12499999999999996,0.05700934579439238,0.8589330024813897,0.2278129952456418,0.10265199350532203,0.7272727272727273,0.6802163949207303,0.3948662966700302,0.17551112447384248,0.10635514018691589,0.12847260349181946
0.15901360544217688,0.12213150926743155,0.0542056074766354,0.861786600496278,0.22503961965134703,0.09976546996211431,0.7233909341347358,0.6755578931550079,0.39120837537840564,0.17130186410102224,0.10130841121495326,0.12276271000329417
0.16482426303854875,0.12720653133274487,0.056542056074766145,0.8563275434243177,0.23256735340729,0.10427566299837623,0.7237665915351865,0.6762341272822902,0.39202825428859733,0.17182802164762476,0.10214953271028036,0.12440979466344568
0.17148526077097506,0.1329435127978817,0.0588785046728973,0.8502481389578164,0.24049128367670358,0.10950748692044017,0.7302779864763336,0.6815688631752949,0.39644298688193735,0.17746542393265186,0.10859813084112149,0.13187657845613263
0.17063492063492064,0.13250220653133274,0.05934579439252353,0.8508684863523573,0.23930269413629154,0.10914667147753918,0.7330328074129727,0.6841235254339169,0.398335015136226,0.17964521948286227,0.11140186915887851,0.135500164708466
0.17559523809523808,0.13636363636363638,0.059813084112149355,0.8465260545905707,0.2460380348652932,0.11239401046364789,0.7359128474830954,0.6860770906905101,0.40098385469223,0.18257666867107636,0.11579439252336449,0.13813550016470846
0.18835034013605442,0.15103706972639008,0.07990654205607482,0.8327543424317618,0.2551505546751189,0.12826988995128988,0.7409216128224392,0.6909610038319934,0.40697527749747725,0.18956704750450992,0.12457943925233643,0.1457120896014055
0.20649092970521543,0.1731023830538394,0.11355140186915894,0.8122828784119107,0.2666402535657686,0.15280534006855487,0.7535687453042825,0.7022315726200314,0.41712916246215936,0.20136800962116658,0.13990654205607475,0.1604260458987592
0.22874149659863946,0.1969329214474846,0.14112149532710286,0.7892059553349877,0.286053882725832,0.17752119790727036,0.7702228900576007,0.7174092719212563,0.4316977800201816,0.2182050511124474,0.15990654205607477,0.17986164488854728
0.24319727891156462,0.21315092674315975,0.16168224299065415,0.7738213399503723,0.2975435816164817,0.19484033916651636,0.7827448034059604,0.7290555263355624,0.44323915237134204,0.23278713168971737,0.1777570093457944,0.19611288020204234
0.2505668934240363,0.222197705207414,0.17616822429906526,0.7655086848635236,0.30150554675118857,0.20494317156774305,0.7905083896819434,0.7336388909760312,0.4477800201816347,0.2384996993385448,0.1847663551401869,0.20061491160645656
0.25651927437641725,0.23201676963812887,0.197663551401869,0.7573200992555832,0.3007131537242472,0.21721089662637563,0.7931379914850989,0.7382222556165,0.45200554994954584,0.2436861094407697,0.19056074766355138,0.20522674865488086
0.27409297052154197,0.24779346866725507,0.20654205607476617,0.7408188585607941,0.3217115689381933,0.23182392206386426,0.8009015777610818,0.7447591855135622,0.4579969727547931,0.2506013229104029,0.19999999999999998,0.21488964532776983
0.2872732426303855,0.26026037069726393,0.2163551401869158,0.7280397022332507,0.3359746434231379,0.24391123940104634,0.8114199849737039,0.753174543541964,0.46518668012108977,0.2593956704750451,0.2108411214953271,0.22707807181289116
0.28741496598639454,0.2627978817299205,0.22663551401869164,0.7264267990074442,0.3316164817749604,0.24806061699440726,0.8158026546456298,0.7574573596814185,0.46947527749747725,0.26458208057726995,0.21766355140186913,0.23388602174151749
0.27976190476190477,0.25386142983230364,0.21448598130841126,0.7348635235732011,0.3260697305863708,0.23831860003608155,0.8109191084397696,0.7524231722894281,0.4650605449041372,0.25871918220084184,0.2106542056074766,0.22630943230482045
0.2732426303854875,0.24646954986760813,0.20420560747663544,0.7419354838709677,0.3213153724247227,0.2303806602922604,0.8015276734284998,0.7445337741378015,0.4579969727547931,0.25075165363800356,0.20037383177570092,0.21510925661579003
0.2648809523809524,0.24073256840247134,0.2070093457943924,0.7487593052109183,0.3082408874801902,0.2262312826988995,0.7953919358878037,0.741528289127658,0.4537714429868819,0.24586590499098013,0.19383177570093454,0.21016800263533544
0.2604875283446712,0.23367166813768758,0.19205607476635506,0.7547146401985112,0.3086370839936608,0.21739130434782614,0.7943901828199349,0.738597941242768,0.4513118062563067,0.24263379434756463,0.1895327102803738,0.2070934446030526
0.24589002267573698,0.21800529567519855,0.1733644859813083,0.7698511166253103,0.2963549920760697,0.201154609417283,0.7870022539444027,0.730933954466902,0.4453203834510595,0.23571858087793143,0.18074766355140184,0.19852860437026465
0.22534013605442174,0.1946160635481024,0.1429906542056074,0.7919354838709678,0.2805071315372425,0.17607793613566666,0.7719759579263711,0.7183860545495528,0.43270686175580214,0.22091100420926035,0.1630841121495327,0.18117931261666848
0.20691609977324263,0.1736540158870256,0.11448598130841099,0.8119106699751861,0.2666402535657686,0.15334656323290638,0.7559479088404708,0.7045608235028927,0.41908425832492424,0.20460012026458207,0.14186915887850465,0.16295157571099153
0.19685374149659865,0.15997352162400708,0.08971962616822443,0.8239454094292805,0.2630744849445325,0.13747068374526422,0.7455547207613323,0.6962957397249981,0.41019172552976785,0.19460312687913411,0.12934579439252336,0.1503239266498298
0.18820861678004536,0.1481685789938217,0.06822429906542068,0.8343672456575683,0.259904912836767,0.12357928919357745,0.74129727022289,0.6911864152077541,0.4052093844601412,0.187913409500902,0.1211214953271028,0.1443944218732843
0.17290249433106575,0.13448808473080315,0.06074766355140181,0.8487593052109181,0.24207606973058635,0.11095074869204404,0.7352867518156774,0.6856262679389886,0.3994071644803229,0.18144918821407094,0.11289719626168224,0.13681783243658724
0.1621315192743764,0.1251103265666372,0.056542056074766145,0.8588089330024815,0.2286053882725832,0.10247158578387153,0.7294014525419483,0.6799158464197159,0.3946770938446014,0.17536079374624172,0.10598130841121495,0.12880202042384978
0.159297052154195,0.1225728155339806,0.055140186915887866,0.8614143920595534,0.22543581616481775,0.10012628540501532,0.7235161532682193,0.6758584416560222,0.391523713420787,0.1713770294648226,0.10121495327102803,0.1235313495113649
0.16439909297052155,0.12753751103265668,0.05934579439252353,0.8564516129032258,0.2305863708399366,0.10499729388417825,0.7246431254695717,0.6769103614095724,0.39246972754793136,0.1722038484666266,0.10158878504672897,0.12462940595146592
0.17063492063492064,0.1331641659311562,0.06261682242990634,0.8504962779156328,0.23811410459587953,0.11022911780624202,0.7305284247433007,0.6819445488015629,0.3961907164480323,0.17671377029464821,0.10766355140186915,0.13242560667618317
0.16907596371882083,0.1320609002647838,0.06308411214953256,0.8517369727047146,0.23573692551505546,0.10950748692044017,0.7327823691460055,0.6841986625591704,0.39764127144298683,0.1786680697534576,0.11028037383177569,0.1348413308444054
0.16184807256235828,0.12533097969991175,0.05841121495327107,0.8586848635235733,0.22741679873217116,0.10301280894822304,0.7278988229401452,0.6805920805469982,0.39448789101917253,0.17588695129284426,0.10626168224299064,0.1296804655759306
0.15858843537414966,0.12213150926743155,0.055607476635514096,0.8620347394540944,0.223851030110935,0.09994587768356482,0.7228900576008014,0.6756330302802614,0.3908299697275479,0.17152736019242334,0.10018691588785046,0.12342154386735478
0.16383219954648526,0.12621359223300974,0.055607476635514096,0.8573200992555832,0.231378763866878,0.10337362439112388,0.7230152767342849,0.6767600871590653,0.39190211907164474,0.1723541791942273,0.10149532710280372,0.12539804545953664
0.17020975056689344,0.131729920564872,0.05794392523364484,0.8514888337468983,0.23930269413629154,0.10824463287028682,0.730778863010268,0.682620782928845,0.3961907164480323,0.17716476247745036,0.10747663551401868,0.13231580103217302
0.16921768707482993,0.13139894086496032,0.059813084112149355,0.8521091811414393,0.23732171156893814,0.10824463287028682,0.7329075882794891,0.6841235254339169,0.3975151362260343,0.17934455802766086,0.11,0.13407269133633468
0.16227324263038548,0.12566195939982353,0.0588785046728973,0.8584367245657568,0.2278129952456418,0.10337362439112388,0.7280240420736288,0.6801412577954767,0.39448789101917253,0.17498496692723994,0.10616822429906542,0.12869221477983966
0.15901360544217688,0.12279346866725512,0.05700934579439238,0.8614143920595534,0.223851030110935,0.10084791629081717,0.7233909341347358,0.6759335787812758,0.3910191725529768,0.1713770294648226,0.10102803738317755,0.12342154386735478
0.16383219954648526,0.12753751103265668,0.06121495327102804,0.8565756823821341,0.22900158478605384,0.10535810932707926,0.7241422489356374,0.6771357727853332,0.39183905146316844,0.1722038484666266,0.10130841121495326,0.12473921159547599
0.1709183673469388,0.13239187996469548,0.05794392523364484,0.8507444168734493,0.24049128367670358,0.10878585603463832,0.7305284247433007,0.6820196859268164,0.396127648839556,0.17746542393265186,0.1072897196261682,0.13187657845613263
0.17035147392290248,0.1311782877316858,0.055140186915887866,0.8517369727047146,0.2408874801901743,0.10734259426303447,0.7330328074129727,0.6841235254339169,0.39764127144298683,0.17881840048105832,0.1097196261682243,0.13385308004831448
0.16383219954648526,0.12621359223300974,0.055140186915887866,0.8574441687344915,0.231378763866878,0.10319321666967339,0.7277736038066616,0.6803666691712374,0.3946770938446014,0.17498496692723994,0.10551401869158877,0.12902163171186998
0.15958049886621317,0.12301412180052955,0.056542056074766145,0.8610421836228288,0.22503961965134703,0.10084791629081717,0.7226396193338342,0.6759335787812758,0.3913975782038345,0.1707757065544197,0.10028037383177568,0.12232348742725375
0.16383219954648526,0.1268755516328332,0.0588785046728973,0.8569478908188586,0.22979397781299524,0.10445607071982674,0.7232657150012521,0.676985498534826,0.39253279515640765,0.17182802164762476,0.1019626168224299,0.12386076644339519
0.17049319727891155,0.1331641659311562,0.06261682242990634,0.8506203473945411,0.2377179080824089,0.11022911780624202,0.7285249186075632,0.6817942745510557,0.3960645812310797,0.17603728202044497,0.10766355140186915,0.13132755023608214
0.16992630385487528,0.131729920564872,0.05841121495327107,0.8516129032258065,0.2389064976228209,0.10824463287028682,0.7324067117455547,0.6838229769329026,0.3975782038345106,0.17874323511725795,0.10990654205607475,0.1336334687602943
0.1617063492063492,0.12312444836716681,0.04953271028037391,0.8600496277915635,0.23098256735340725,0.09958506224066381,0.728900576008014,0.6799158464197159,0.3936049445005045,0.17506013229104028,0.10485981308411213,0.12649610189963761
0.14554988662131518,0.10646513680494261,0.032242990654205425,0.8764267990074442,0.21592709984152134,0.08262673642431898,0.721136989732031,0.6722518596438499,0.3818113017154389,0.1658147925435959,0.08616822429906541,0.10596244646974855
0.10048185941043083,0.07380847308031768,0.04252336448598127,0.9146401985111663,0.14817749603803484,0.05791087858560348,0.7098672677185073,0.6551957322112856,0.36226034308779004,0.14085989176187613,0.055140186915887845,0.06917755572636433
0.04209183673469388,0.03254633715798766,0.060280373831775584,0.9632754342431763,0.059429477020602195,0.027602381381923054,0.7113698973203104,0.6425726951686829,0.34882694248234103,0.1128983764281419,0.025887850467289707,0.031514219830899304
0.011479591836734693,0.008936451897616889,0.06074766355140181,0.9900744416873452,0.01624405705229786,0.0084791629081725,0.7480591034310041,0.6586520399729505,0.37619828456104937,0.12011425135297656,0.010467289719626178,0.010431536180959702
0.06434240362811793,0.052294792586054684,0.0700934579439252,0.9424317617866006,0.08597464342313785,0.04564315352697091,0.8176809416478837,0.7215418138102035,0.46688950554994946,0.19512928442573663,0.05448598130841121,0.05578126715713187
0.19699546485260772,0.17817740511915273,0.16635514018691605,0.8136476426799008,0.2305863708399366,0.16723795778459316,0.884297520661157,0.803666691712375,0.6094853683148335,0.353126879134095,0.1857943925233645,0.17931261666849674
0.39640022675736963,0.37157987643424534,0.3280373831775702,0.6176178660049628,0.44096671949286836,0.35648565758614476,0.9406461307287753,0.8936809677661732,0.7534056508577194,0.5487071557426338,0.389626168224299,0.3685077412979027
0.6176303854875284,0.5991835834068844,0.5626168224299065,0.39280397022332514,0.6509508716323296,0.587948764207108,0.989105935386927,0.9725749492824404,0.8980196770938444,0.7655592303066746,0.6228037383177569,0.5950367848907434
0.8295068027210885,0.8221535745807591,0.8084112149532707,0.17468982630272947,0.8427099841521394,0.8176077936135667,0.9893563736538943,0.9971447892403635,0.9962159434914227,0.9521948286229706,0.8627102803738317,0.8214560228395739
0.971655328798186,0.9727493380406,0.9775700934579438,0.027791563275434274,0.9694928684627574,0.9734800649467799,0.872526922113699,0.9038996168006612,0.9492305751765892,0.9884245339747445,0.9922429906542055,0.9734270341495553
0.9652777777777778,0.96635039717564,0.9714953271028036,0.03411910669975177,0.9635499207606972,0.9669853869745624,0.6502629601803155,0.7088436396423472,0.7455221997981836,0.8523000601322911,0.9354205607476634,0.9646425826287471
0.8371598639455783,0.8321932921447486,0.8261682242990651,0.16575682382134002,0.845879556259905,0.8291538877863973,0.39193588780365635,0.4521752197760914,0.4824672048435923,0.6434906794948888,0.766448598130841,0.8299110574283517
0.6546201814058957,0.6393424536628421,0.6107476635514018,0.353970223325062,0.6818541996830427,0.6299837633050694,0.16178312046080637,0.18671575625516573,0.21997981836528757,0.41213168971737824,0.5574766355140186,0.6404963215109256
0.4491213151927438,0.4213371579876435,0.3644859813084113,0.5666253101736973,0.49920760697305855,0.4042937037705214,0.01803155522163787,0.022541137576076332,0.03626387487386478,0.202495490078172,0.3170093457943925,0.42593609311518604
0.258078231292517,0.21712268314210065,0.12990654205607455,0.765012406947891,0.3316164817749604,0.19195381562330865,0.05810167793638868,0.03396198061462176,0.013874873864783081,0.04690318701142514,0.14130841121495324,0.22257604040847695
0.15079365079365079,0.10812003530450133,0.02196261682242998,0.8733250620347395,0.22741679873217116,0.08208551325996746,0.22639619333834207,0.1713126455781802,0.09453834510595359,0.0,0.04925233644859814,0.11046447787416272
0.09963151927437643,0.06619593998234774,0.013084112149532824,0.9192307692307694,0.15966719492868459,0.04600396896987191,0.4104683195592286,0.3438274851604177,0.2061680121089808,0.024879735417919418,0.02448598130841122,0.06357746788184912
0.08205782312925172,0.061562224183583356,0.05140186915887843,0.929528535980149,0.11885895404120439,0.049612123398881484,0.5656148259454045,0.49560447817266506,0.2971745711402623,0.0835838845460012,0.03420560747663551,0.06127154935763698
0.1096938775510204,0.07844218887908207,0.0317757009345796,0.9079404466501241,0.16600633914421556,0.059534548078657684,0.6547708489857249,0.5953865805094297,0.35021442986881934,0.13026157546602526,0.057289719626168224,0.08070714834742505
0.1464002267573696,0.10414827890556042,0.019626168224299235,0.8774193548387098,0.2222662440570523,0.07829695110950739,0.7054845980465815,0.6494853106920129,0.3778380423814328,0.1564942874323512,0.08130841121495327,0.1081585593499506
0.1578798185941043,0.11749779346866726,0.0383177570093456,0.8648883374689826,0.2305863708399366,0.09272956882554567,0.7203856749311294,0.6711248027650462,0.3881811301715438,0.1676939266386049,0.09560747663551401,0.11869990117492038
0.165391156462585,0.1268755516328332,0.053271028037383344,0.8563275434243177,0.23454833597464345,0.10337362439112388,0.7238918106686701,0.6770606356600796,0.39196518668012104,0.17190318701142512,0.10186915887850466,0.12397057208740526
0.1707766439909297,0.13272285966460726,0.060280373831775584,0.8506203473945411,0.23930269413629154,0.10950748692044017,0.7302779864763336,0.6821699601773236,0.39631685166498487,0.17671377029464821,0.10738317757009345,0.1315471615241023
0.16907596371882083,0.1306266548984996,0.05700934579439238,0.852605459057072,0.23811410459587953,0.10716218654158396,0.7326571500125219,0.6834472913066345,0.3979566094853683,0.17896873120865905,0.10981308411214953,0.13407269133633468
0.1621315192743764,0.12499999999999996,0.056542056074766145,0.8588089330024815,0.2286053882725832,0.10247158578387153,0.7281492612071124,0.6798407092944624,0.39448789101917253,0.17513529765484065,0.10542056074766355,0.1289118260678599
0.15844671201814056,0.12180052956751987,0.05467289719626163,0.8622828784119106,0.22424722662440572,0.09958506224066381,0.7240170298021538,0.6760087159065293,0.391523713420787,0.17092603728202044,0.10065420560747664,0.12386076644339519
0.16397392290249435,0.12643424536628425,0.056074766355140325,0.857196029776675,0.231378763866878,0.10355403211257438,0.7247683446030553,0.676985498534826,0.39240665993945506,0.1723541791942273,0.10224299065420561,0.12419018337542549
0.1697845804988662,0.13250220653133274,0.0621495327102805,0.8512406947890819,0.2369255150554675,0.10968789464189067,0.7300275482093664,0.6820196859268164,0.39644298688193735,0.1775405892964522,0.10822429906542054,0.13099813330405183
0.16950113378684808,0.1320609002647838,0.06168224299065427,0.8516129032258065,0.2369255150554675,0.10914667147753918,0.7332832456799399,0.6836727026823952,0.3980196770938446,0.17941972339146123,0.11037383177570093,0.13440210826836496
0.1631235827664399,0.12577228596646067,0.056542056074766145,0.8579404466501241,0.22979397781299524,0.10319321666967339,0.728900576008014,0.6796152979187017,0.39448789101917253,0.17528562838244136,0.10626168224299064,0.1291314373558801
0.1597222222222222,0.12301412180052955,0.055607476635514096,0.8609181141439206,0.2258320126782884,0.10066750856936682,0.7225144002003506,0.6761589901570365,0.39120837537840564,0.17122669873722185,0.10158878504672897,0.1232019325793346
0.16425736961451246,0.12720653133274487,0.05841121495327107,0.8566997518610422,0.2305863708399366,0.10463647844127724,0.7232657150012521,0.6772109099105867,0.39190211907164474,0.17265484064942874,0.10261682242990654,0.12440979466344568
0.17063492063492064,0.13272285966460726,0.06074766355140181,0.8507444168734493,0.2389064976228209,0.10950748692044017,0.729526671675432,0.6821699601773236,0.3960015136226034,0.17776608538785327,0.10822429906542054,0.13077852201603163
0.1697845804988662,0.13228155339805822,0.06168224299065427,0.8513647642679901,0.2369255150554675,0.10950748692044017,0.7321562734785875,0.6838981140581561,0.3975782038345106,0.17911906193625976,0.10990654205607475,0.13319424618425388
0.16241496598639454,0.125441306266549,0.05700934579439238,0.8584367245657568,0.2286053882725832,0.10283240122677254,0.7281492612071124,0.6794650236681944,0.39448789101917253,0.17536079374624172,0.10551401869158877,0.12792357527176895
0.15915532879818592,0.12279346866725512,0.056074766355140325,0.8614143920595534,0.22464342313787639,0.10066750856936682,0.7227648384673178,0.676083853031783,0.3916498486377396,0.1713770294648226,0.10065420560747664,0.12287251564730428
0.1635487528344671,0.12753751103265668,0.0621495327102805,0.8568238213399505,0.22820919175911247,0.1055385170485296,0.7231404958677685,0.6772109099105867,0.39259586276488395,0.1722038484666266,0.10242990654205605,0.12495882288349622
0.17106009070294784,0.13327449249779347,0.06168224299065427,0.8502481389578164,0.2389064976228209,0.11022911780624202,0.729526671675432,0.6817191374258021,0.39669525731584254,0.17731509320505112,0.10766355140186915,0.13165696716811243
0.16964285714285715,0.13239187996469548,0.06261682242990634,0.8513647642679901,0.23652931854199685,0.10968789464189067,0.7315301778111696,0.6835224284318882,0.3982088799192734,0.17919422730006013,0.11,0.1339628856923246
0.16156462585034012,0.12577228596646067,0.06074766355140181,0.858560794044665,0.2258320126782884,0.10391484755547539,0.72702228900576,0.6795401607934479,0.3946140262361251,0.17558628983764282,0.10635514018691589,0.12814318655978918
0.15830498866213152,0.12235216240070608,0.05747663551401861,0.8619106699751862,0.22305863708399362,0.10048710084791633,0.7227648384673178,0.6758584416560222,0.3914606458123107,0.17205351773902589,0.10205607476635514,0.12342154386735478
0.163265306122449,0.12599293909973522,0.056542056074766145,0.8576923076923078,0.23019017432646588,0.10337362439112388,0.7227648384673178,0.6765346757833044,0.39240665993945506,0.1729555021046302,0.10224299065420561,0.12440979466344568
0.17063492063492064,0.13228155339805822,0.0588785046728973,0.8509925558312657,0.23930269413629154,0.10896626375608867,0.7300275482093664,0.6820196859268164,0.39656912209888995,0.17761575466025253,0.10841121495327102,0.131217744592072
0.17049319727891155,0.13217122683142105,0.0588785046728973,0.8511166253101737,0.23930269413629154,0.10878585603463832,0.733533683946907,0.6839732511834097,0.39808274470232086,0.17972038484666264,0.1105607476635514,0.13352366311628416
0.1621315192743764,0.12621359223300974,0.06121495327102804,0.8580645161290323,0.2266244057052298,0.10445607071982674,0.7290257951414976,0.6798407092944624,0.39530776992936423,0.1758117859290439,0.10626168224299064,0.12847260349181946
0.15901360544217688,0.12191085613415713,0.053271028037383344,0.8619106699751862,0.22543581616481775,0.09922424679776297,0.7236413724017029,0.6758584416560222,0.39190211907164474,0.17182802164762476,0.1014018691588785,0.12364115515537497
0.1641156462585034,0.12709620476610772,0.05841121495327107,0.8568238213399505,0.2305863708399366,0.10445607071982674,0.724267468069121,0.6767600871590653,0.39246972754793136,0.17257967528562837,0.10224299065420561,0.12506862852750628
0.17063492063492064,0.13283318623124452,0.06074766355140181,0.8506203473945411,0.2389064976228209,0.10968789464189067,0.7304032056098171,0.6815688631752949,0.396127648839556,0.1775405892964522,0.1080373831775701,0.13110793894806194
0.16836734693877553,0.13184024713150927,0.06448598130841125,0.8522332506203475,0.2341521394611727,0.10968789464189067,0.7324067117455547,0.6830716056803666,0.3978304742684157,0.1792693926638605,0.1097196261682243,0.1339628856923246
0.1641156462585034,0.1265445719329214,0.056074766355140325,0.8570719602977668,0.231378763866878,0.10355403211257438,0.7275231655396944,0.681193177549027,0.39675832492431884,0.1773902585688515,0.10654205607476634,0.13022949379598112
0.17346938775510204,0.13327449249779347,0.05373831775700917,0.849255583126551,0.24564183835182243,0.10860544831318782,0.72702228900576,0.6843489368096776,0.4050832492431886,0.18565844858689115,0.11084112149532709,0.13198638410014274
0.1941609977324263,0.15136804942630186,0.0621495327102805,0.8299007444168736,0.2709984152139461,0.1252029586866318,0.7376659153518657,0.6965211511007589,0.4240665993945509,0.20407396271797956,0.1261682242990654,0.14461403316130447
0.21825396825396826,0.17343336275375107,0.07663551401869162,0.8070719602977668,0.2983359746434231,0.14594984665343674,0.7541948409717004,0.7140281012848448,0.44658173562058523,0.22760072158749248,0.14785046728971962,0.16437904908312287
0.23200113378684808,0.1876654898499559,0.09112149532710272,0.7929280397022334,0.31180665610142627,0.160382464369475,0.7674680691209617,0.7292809377113232,0.4673940464177598,0.24789536981358987,0.16448598130841122,0.17964203360052705
0.24362244897959184,0.19991173874669024,0.105140186915888,0.7810173697270473,0.322107765451664,0.17319141259245893,0.7731029301277235,0.7393493124953039,0.48442230070635717,0.2653337342152736,0.17551401869158878,0.1883166794773251
0.25736961451247165,0.21425419240953225,0.11962616822429911,0.7668734491315137,0.3351822503961965,0.18762403030849722,0.7773603806661658,0.7477646705237058,0.500693743693239,0.27961515333734216,0.18439252336448594,0.19622268584605246
0.2779195011337869,0.23400264783759928,0.13598130841121472,0.7467741935483871,0.3565768621236133,0.20692765650369827,0.7905083896819434,0.7625666841986625,0.5216321897073662,0.3012627781118461,0.2025233644859813,0.21192489293949707
0.302437641723356,0.25783318623124446,0.1560747663551402,0.7227047146401986,0.3827258320126783,0.2303806602922604,0.8072877535687453,0.7806747313847772,0.5460393541876892,0.32584185207456406,0.22308411214953272,0.23234874272537606
0.31859410430839,0.27338923212709626,0.16869158878504678,0.7069478908188586,0.3997622820919175,0.2455349088941007,0.8193087903831705,0.7957772935607482,0.5656533804238143,0.3459861695730608,0.24028037383177567,0.24772153288679033
0.326672335600907,0.28287731685789946,0.1817757009345792,0.698014888337469,0.4057052297939778,0.2556377412953274,0.8248184322564488,0.8042677887144037,0.5823032290615539,0.3609440769693325,0.2504672897196262,0.2556275392555177
0.33942743764172334,0.2960061782877317,0.1957943925233645,0.6851116625310174,0.4171949286846276,0.2691683204041133,0.8275732531930878,0.8103538958599444,0.5962411705348133,0.37484966927239927,0.2595327102803738,0.26122762710003294
0.3606859410430839,0.3150926743159753,0.20654205607476617,0.6650124069478909,0.44255150554675116,0.2868482771062602,0.8369646882043577,0.8219250131489969,0.6135216952573158,0.3916115453998797,0.2734579439252336,0.27462391566926536
