Lead I,Lead II,Lead III,aVR,aVL,aVF,V1,V2,V3,V4,V5,V6
0.4241780045351474,0.3747793468667255,0.2499999999999999,0.6037220843672456,0.5126782884310618,0.3440375248060616,0.8785374405209115,0.8723420241941543,0.6827068617558022,0.463544798556825,0.3322429906542056,0.3310640166904579
0.415391156462585,0.3659532215357458,0.2411214953271027,0.6125310173697271,0.5043581616481775,0.3350171387335378,0.8749060856498874,0.8660305056728529,0.6746342078708375,0.4553517739025857,0.3254205607476635,0.3230482046777204
0.3988095238095238,0.3520520741394528,0.2373831775700933,0.6275434243176179,0.4829635499207607,0.3229298213963557,0.862885048835462,0.855436171012097,0.662651362260343,0.4413710162357185,0.3126168224299065,0.3100911386845283
0.3918650793650794,0.343667255075022,0.2252336448598129,0.6352357320099257,0.4782091917591125,0.3139094353238318,0.8544953668920611,0.848147869862499,0.6510469223007063,0.4295700541190619,0.304018691588785,0.2999890194355989
0.3901643990929705,0.3414607237422771,0.2214953271028035,0.6372208436724566,0.4774167987321711,0.3112033195020747,0.8523666416228399,0.8444661507250733,0.6421543895055499,0.4218280216476248,0.29803738317757,0.2959262106072252
0.38109410430839,0.3318623124448367,0.2102803738317756,0.6466501240694789,0.4694928684627574,0.3012808948222983,0.8519909842223891,0.8390562777068148,0.6319374369323915,0.4118310282621767,0.2915887850467289,0.2937300977270231
0.3599773242630386,0.3127758164165931,0.1985981308411214,0.6666253101736973,0.4449286846275752,0.2834205303987009,0.8427247683446031,0.8261326921631977,0.615098385469223,0.3943926638604931,0.2781308411214953,0.280663226089821
0.3377267573696145,0.2926963812886143,0.1873831775700935,0.6875930521091812,0.4187797147385103,0.2648385350893018,0.8275732531930878,0.8106544443609587,0.5939076690211906,0.3737973541791942,0.2595327102803738,0.262435489184144
0.3245464852607709,0.2800088261253309,0.1771028037383177,0.700620347394541,0.4045166402535657,0.2523904023092188,0.8184322564487854,0.7996092869486813,0.5758703329969727,0.3554570054119061,0.2448598130841121,0.2490392006149116
0.3159013605442177,0.2707413945278022,0.166355140186916,0.7095533498759306,0.3969889064976228,0.2428287930723434,0.8132982719759579,0.7908182432940115,0.5597880928355197,0.3400481058328322,0.2347663551401868,0.2419018337542549
0.3007369614512471,0.2554060017652251,0.1514018691588783,0.7248138957816378,0.3819334389857369,0.2274941367490528,0.8076634109691961,0.7803741828837629,0.5442734611503531,0.3247143716175586,0.2227102803738317,0.2339958273855276
0.2766439909297052,0.2322374227714033,0.1327102803738319,0.7483870967741936,0.3561806656101426,0.2047627638462925,0.7947658402203855,0.7649710722067774,0.5228304742684157,0.3023902585688514,0.2059813084112149,0.2185132315801032
0.2558106575963719,0.2117166813768755,0.1144859813084109,0.768982630272953,0.3347860538827258,0.184557099043839,0.7772351615326821,0.7477646705237058,0.4988647830474268,0.2780366806975345,0.1849532710280373,0.1971011309981333
0.2403628117913832,0.1961606354810238,0.0995327102803736,0.7846153846153846,0.3197305863708399,0.1688616272776475,0.7647132481843225,0.7335637538507777,0.4784308779011099,0.2582681900180397,0.1691588785046728,0.181728340836719
0.2287414965986394,0.1852383053839364,0.0911214953271027,0.7957816377171216,0.3070522979397781,0.1583979794335198,0.7604557976458802,0.7243970245698399,0.4613395560040363,0.2417318099819603,0.1570093457943925,0.1734929175359613
0.215844671201814,0.1707855251544572,0.0728971962616821,0.8095533498759305,0.2967511885895404,0.1430633231102291,0.754320060105184,0.7146291982868735,0.4450681130171543,0.2269242333132892,0.1469158878504672,0.1652574942352036
0.1940192743764172,0.1488305383936451,0.0518691588785046,0.8315136476426799,0.2749603803486529,0.1210535810932707,0.7429251189581768,0.7002028702381847,0.4257694248234106,0.2064040889957907,0.1293457943925233,0.1507631492258702
0.1707766439909297,0.1299646954986761,0.0485981308411214,0.8522332506203475,0.2440570522979397,0.1049972938841782,0.7285249186075632,0.6847997595611992,0.4040741675075681,0.1847564642212868,0.1098130841121495,0.1328648292522235
0.1626984126984127,0.1249999999999999,0.0542056074766354,0.858560794044665,0.2301901743264658,0.10193036261952,0.7233909341347358,0.6774363212863475,0.3929112008072654,0.1731058328322309,0.1020560747663551,0.1248490172394861
0.1683673469387755,0.1310679611650485,0.061214953271028,0.852605459057072,0.2353407290015847,0.1084250405917373,0.7266466316053093,0.6802163949207303,0.3944878910191725,0.175210463018641,0.1062616822429906,0.1295706599319205
0.171485260770975,0.1322815533980582,0.0560747663551403,0.8506203473945411,0.2416798732171157,0.1084250405917373,0.7322814926120711,0.684273799684424,0.3976412714429868,0.1795700541190619,0.1107476635514018,0.135500164708466
0.165391156462585,0.1267652250661959,0.0532710280373833,0.8563275434243177,0.2345483359746434,0.1031932166696733,0.7304032056098171,0.6819445488015629,0.3965060544904136,0.1776157546602525,0.1087850467289719,0.132315801032173
0.1604308390022675,0.1216902030008826,0.0476635514018689,0.8614143920595534,0.2297939778129952,0.0981418004690601,0.7248935637365389,0.6771357727853332,0.3925327951564076,0.1726548406494287,0.1028971962616822,0.1257274623915669
0.1622732426303854,0.124117387466902,0.0518691588785046,0.8593052109181142,0.2305863708399366,0.1008479162908171,0.7230152767342849,0.6763092644075437,0.391523713420787,0.1714521948286229,0.1017757009345794,0.1239705720874052
0.1687925170068027,0.1305163283318623,0.0574766355140186,0.8528535980148884,0.2373217115689381,0.1071621865415839,0.7262709742048584,0.6801412577954767,0.3943617558022199,0.1752856283824413,0.1061682242990654,0.1284726034918194
0.1717687074829932,0.1322815533980582,0.0551401869158878,0.8504962779156328,0.2428684627575277,0.1080642251488363,0.7316553969446532,0.6836727026823952,0.397452068617558,0.1791190619362597,0.1104672897196261,0.1341824969803448
0.1662414965986394,0.1275375110326566,0.0532710280373833,0.8555831265508685,0.2357369255150554,0.1039148475554753,0.7319058352116202,0.6822450973025772,0.3960645812310797,0.1770144317498496,0.108411214953271,0.132315801032173
0.1607142857142857,0.1218005295675198,0.0471962616822431,0.861166253101737,0.2305863708399366,0.0981418004690601,0.7257700976709242,0.6774363212863475,0.3922174571140262,0.1722038484666266,0.1021495327102803,0.1257274623915669
0.1624149659863945,0.123676081200353,0.0495327102803739,0.8594292803970224,0.2321711568938192,0.0999458776835648,0.7228900576008014,0.6760087159065293,0.3913345105953582,0.1710763680096212,0.1009345794392523,0.1229823212913143
0.1685090702947845,0.1300750220653133,0.0570093457943923,0.8531017369727047,0.2373217115689381,0.1066209633772324,0.7273979464062108,0.6801412577954767,0.3946770938446014,0.1756614552014431,0.1053271028037383,0.1291314373558801
0.1709183673469388,0.13261253309797,0.0593457943925235,0.8507444168734493,0.2396988906497623,0.1093270791989896,0.7331580265464563,0.683747839807649,0.397893541876892,0.1791942273000601,0.1103738317757009,0.135500164708466
0.1659580498866213,0.1283097969991174,0.0574766355140186,0.8553349875930522,0.2333597464342313,0.1053581093270792,0.7304032056098171,0.6823202344278307,0.3963168516649848,0.1773902585688515,0.1090654205607476,0.1328648292522235
0.1602891156462584,0.1218005295675198,0.0485981308411214,0.8614143920595534,0.2293977812995245,0.0983222081905106,0.7248935637365389,0.6776617326621084,0.3922174571140262,0.1729555021046302,0.1034579439252336,0.1257274623915669
0.1628401360544217,0.1237864077669902,0.0485981308411214,0.8591811414392061,0.2329635499207606,0.0999458776835648,0.7227648384673178,0.6767600871590653,0.3912083753784056,0.1719783523752255,0.1014953271028037,0.1244097946634456
0.169359410430839,0.1307369814651368,0.0565420560747661,0.8524813895781639,0.2389064976228209,0.1071621865415839,0.728274480340596,0.6803666691712374,0.3943617558022199,0.1752856283824413,0.105233644859813,0.1300098825079609
0.1717687074829932,0.1325022065313327,0.055607476635514,0.8503722084367246,0.242472266244057,0.1084250405917373,0.7332832456799399,0.6841235254339169,0.3978304742684157,0.1786680697534576,0.1093457943925233,0.1339628856923246
0.1668083900226757,0.1274271844660194,0.0509345794392522,0.8553349875930522,0.2377179080824089,0.1033736243911238,0.7306536438767843,0.6817942745510557,0.3958753784056508,0.1768641010222489,0.1075700934579439,0.1309981333040518
0.161422902494331,0.1218005295675198,0.044859813084112,0.8609181141439206,0.23256735340729,0.0976005773047086,0.7240170298021538,0.6765346757833044,0.3914606458123107,0.1722038484666266,0.1018691588785046,0.1248490172394861
0.1629818594104308,0.1237864077669902,0.0481308411214952,0.8590570719602978,0.2333597464342313,0.0999458776835648,0.722389181066867,0.6763092644075437,0.3911453077699293,0.1710763680096212,0.1014018691588785,0.1245196003074558
0.169501133786848,0.1296337157987643,0.0509345794392522,0.8529776674937966,0.2412836767036449,0.1051777016056287,0.7273979464062108,0.6802915320459838,0.3942356205852674,0.175210463018641,0.1062616822429906,0.1296804655759306
0.1712018140589569,0.1316195939982347,0.0542056074766354,0.8511166253101737,0.2420760697305863,0.1075230019844849,0.7325319308790382,0.6841235254339169,0.3972628657921291,0.1788184004810583,0.1101869158878504,0.1348413308444054
0.1656746031746031,0.1268755516328332,0.0528037383177571,0.8562034739454095,0.2349445324881141,0.1033736243911238,0.730778863010268,0.6827710571793524,0.3957492431886982,0.17708959711365,0.1081308411214953,0.1319863841001427
0.1604308390022675,0.1219108561341571,0.0485981308411214,0.8612903225806452,0.2297939778129952,0.0983222081905106,0.724267468069121,0.6775865955368547,0.3917759838546922,0.1728051713770294,0.1028971962616822,0.1260568793235972
0.163407029478458,0.1240070609002648,0.0476635514018689,0.8588089330024815,0.2341521394611727,0.0999458776835648,0.7225144002003506,0.6763092644075437,0.3912714429868819,0.1717528562838244,0.1017757009345794,0.1250686285275062
0.1703514739229024,0.1298543689320388,0.0495327102803739,0.8524813895781639,0.2428684627575277,0.1051777016056287,0.7276483846731779,0.6801412577954767,0.3951816347124116,0.1755111244738424,0.1062616822429906,0.1305589107280114
0.171485260770975,0.1320609002647838,0.0551401869158878,0.8507444168734493,0.242472266244057,0.1078838174273858,0.7322814926120711,0.6841235254339169,0.3978304742684157,0.1791942273000601,0.1103738317757009,0.1351707477764357
0.1652494331065759,0.1273168578993821,0.055607476635514,0.8562034739454095,0.2333597464342313,0.1040952552769259,0.7306536438767843,0.6815688631752949,0.3956231079717456,0.1770144317498496,0.1078504672897196,0.1322059953881629
0.1598639455782312,0.1230141218005295,0.0551401869158878,0.8609181141439206,0.226228209191759,0.1004871008479163,0.7236413724017029,0.6768352242843189,0.391965186680121,0.1719783523752255,0.1019626168224299,0.1248490172394861
0.1624149659863945,0.1247793468667255,0.0542056074766354,0.8588089330024815,0.2301901743264658,0.1017499548980696,0.7222639619333834,0.676083853031783,0.3912714429868819,0.1707005411906193,0.1005607476635514,0.1235313495113649
0.169501133786848,0.1302956751985878,0.0542056074766354,0.852605459057072,0.2400950871632329,0.1064405556557821,0.72702228900576,0.6801412577954767,0.3949293642785065,0.1753607937462417,0.1057009345794392,0.1292412429998902
0.1719104308390022,0.1318402471315092,0.0523364485981308,0.8506203473945411,0.2440570522979397,0.1073425942630344,0.7317806160781366,0.6844240739349312,0.3982088799192734,0.1792693926638605,0.1103738317757009,0.135500164708466
0.1656746031746031,0.1273168578993821,0.0542056074766354,0.8559553349875932,0.2345483359746434,0.1039148475554753,0.7292762334084647,0.6822450973025772,0.3958753784056508,0.1771647624774503,0.1074766355140186,0.1326452179642033
0.1604308390022675,0.1220211827007943,0.0490654205607476,0.861166253101737,0.2293977812995245,0.0986830236334114,0.7246431254695717,0.6772860470358404,0.3922805247225024,0.1722038484666266,0.1017757009345794,0.1264961018996376
0.1625566893424036,0.1238967343336275,0.0500000000000001,0.8591811414392061,0.2321711568938192,0.1003066931264658,0.7230152767342849,0.6765346757833044,0.3913975782038345,0.1713770294648226,0.1010280373831775,0.1248490172394861
0.1697845804988662,0.1306266548984996,0.0546728971962616,0.8523573200992557,0.2400950871632329,0.1066209633772324,0.728274480340596,0.6805920805469982,0.3947401614530776,0.1755111244738424,0.105607476635514,0.1309981333040518
0.1723356009070294,0.1322815533980582,0.0532710280373833,0.8502481389578164,0.2440570522979397,0.1078838174273858,0.7322814926120711,0.6838981140581561,0.3980196770938446,0.178968731208659,0.1105607476635514,0.135500164708466
0.1666666666666666,0.1269858781994704,0.0495327102803739,0.8557071960297767,0.2381141045958795,0.102651993505322,0.7300275482093664,0.6818694116763092,0.3960015136226034,0.17708959711365,0.1082242990654205,0.1322059953881629
0.1609977324263038,0.1222418358340688,0.0481308411214952,0.8609181141439206,0.2305863708399366,0.0986830236334114,0.724517906336088,0.676985498534826,0.3917129162462159,0.172504509921828,0.1022429906542056,0.1255078511035467
0.1628401360544217,0.1242277140335393,0.0509345794392522,0.8589330024813897,0.2317749603803486,0.1008479162908171,0.722389181066867,0.6761589901570365,0.3905776992936428,0.17085087191822,0.1010280373831775,0.1238607664433951
0.1683673469387755,0.1306266548984996,0.0593457943925235,0.8528535980148884,0.2361331220285261,0.1077034097059354,0.7267718507387929,0.6799909835449696,0.3935418768920282,0.1744588093806374,0.1057009345794392,0.1299000768639508
0.1709183673469388,0.1318402471315092,0.0560747663551403,0.8511166253101737,0.2412836767036449,0.1080642251488363,0.7340345604808415,0.6838229769329026,0.3975782038345106,0.1791190619362597,0.1110280373831775,0.1361589985725266
0.1662414965986394,0.1273168578993821,0.0523364485981308,0.8557071960297767,0.2361331220285261,0.1035540321125743,0.7317806160781366,0.68209482305207,0.3964429868819373,0.1773902585688515,0.1085981308411214,0.1328648292522235
0.1605725623582766,0.1220211827007943,0.0485981308411214,0.861166253101737,0.2297939778129952,0.0985026159119609,0.7240170298021538,0.6765346757833044,0.3917129162462159,0.1720535177390258,0.1015887850467289,0.1249588228834962
0.1626984126984127,0.1248896734333627,0.0537383177570091,0.8586848635235733,0.2305863708399366,0.1017499548980696,0.7231404958677685,0.6759335787812758,0.3908930373360242,0.1715273601924233,0.1008411214953271,0.1244097946634456
0.169359410430839,0.1305163283318623,0.055607476635514,0.852605459057072,0.2393026941362915,0.1068013710986829,0.7280240420736288,0.6803666691712374,0.3944878910191725,0.1755862898376428,0.1062616822429906,0.1304491050840013
0.1712018140589569,0.1320609002647838,0.055607476635514,0.8508684863523573,0.2416798732171157,0.1080642251488363,0.7325319308790382,0.6839732511834097,0.3981458123107971,0.1792693926638605,0.1105607476635514,0.1348413308444054
0.1660997732426303,0.1276478375992939,0.0542056074766354,0.8555831265508685,0.2349445324881141,0.1042756629983762,0.731404958677686,0.6819445488015629,0.3965691220988899,0.1773150932050511,0.1078504672897196,0.131217744592072
0.1607142857142857,0.1227934686672551,0.0518691588785046,0.8606699751861043,0.2286053882725832,0.0997654699621143,0.7243926872026045,0.6765346757833044,0.3923435923309787,0.1722038484666266,0.1015887850467289,0.1244097946634456
0.1624149659863945,0.124117387466902,0.0514018691588784,0.8591811414392061,0.2309825673534072,0.1008479162908171,0.7226396193338342,0.6757833045307686,0.3912714429868819,0.1709260372820204,0.1011214953271028,0.1236411551553749
0.169501133786848,0.1306266548984996,0.055607476635514,0.8523573200992557,0.2393026941362915,0.1068013710986829,0.7275231655396944,0.6799909835449696,0.3942986881937437,0.1750601322910402,0.1055140186915887,0.1291314373558801
0.171485260770975,0.1323918799646954,0.0565420560747661,0.8506203473945411,0.2416798732171157,0.1084250405917373,0.7327823691460055,0.6834472913066345,0.397452068617558,0.1792693926638605,0.1095327102803738,0.1350609421324256
0.1659580498866213,0.1273168578993821,0.0532710280373833,0.8558312655086848,0.2353407290015847,0.1037344398340248,0.7304032056098171,0.6816440003005484,0.3958123107971745,0.1776157546602525,0.1073831775700934,0.1327550236082134
0.1597222222222222,0.122352162400706,0.0528037383177571,0.8614143920595534,0.2270206022187004,0.0995850622406638,0.7236413724017029,0.6763092644075437,0.3918390514631684,0.172504509921828,0.1016822429906541,0.1250686285275062
0.1626984126984127,0.1242277140335393,0.0509345794392522,0.8590570719602978,0.2317749603803486,0.1008479162908171,0.7218883045329325,0.6756330302802614,0.3912083753784056,0.1710012026458208,0.1005607476635514,0.123750960799385
0.1699263038548752,0.130847308031774,0.0551401869158878,0.8521091811414393,0.2400950871632329,0.1069817788201334,0.7287753568745304,0.6798407092944624,0.3947401614530776,0.1750601322910402,0.1057943925233644,0.1301196881519709
0.1720521541950113,0.13261253309797,0.0560747663551403,0.8502481389578164,0.2428684627575277,0.1086054483131878,0.7336589030803906,0.6840483883086633,0.3975151362260343,0.1788935658448587,0.1102803738317756,0.1352805534204458
0.1663832199546485,0.1275375110326566,0.0532710280373833,0.8555831265508685,0.2361331220285261,0.1039148475554753,0.7306536438767843,0.6823202344278307,0.3960645812310797,0.1770144317498496,0.1083177570093457,0.1326452179642033
0.1595804988662131,0.1218005295675198,0.0509345794392522,0.861786600496278,0.2274167987321711,0.0988634313548619,0.7257700976709242,0.6771357727853332,0.3923435923309787,0.1722790138304269,0.102803738317757,0.1263862962556275
0.1615646258503401,0.1233451015004413,0.0504672897196259,0.8600496277915635,0.2305863708399366,0.0999458776835648,0.7238918106686701,0.6765346757833044,0.3912083753784056,0.1711515333734215,0.1013084112149532,0.1246294059514659
0.1709183673469388,0.1311782877316858,0.0532710280373833,0.8514888337468983,0.2420760697305863,0.1068013710986829,0.728900576008014,0.681343451799534,0.3955600403632693,0.1763379434756464,0.1067289719626168,0.1304491050840013
0.1831065759637188,0.1426522506619594,0.0616822429906542,0.8397022332506203,0.2559429477020602,0.1178062421071621,0.7409216128224392,0.6899842212036967,0.4038849646821392,0.1864852675886951,0.1188785046728971,0.1446140331613044
0.1930272108843537,0.1535745807590467,0.0752336448598129,0.8291563275434244,0.2638668779714738,0.1295327440014432,0.7488104182319059,0.6975730708543091,0.4109485368314833,0.1955802766085388,0.1301869158878504,0.1548259580542439
0.2018140589569161,0.1661518093556928,0.0995327102803736,0.818362282878412,0.2658478605388272,0.1443261771603823,0.7528174305033809,0.7026823953715531,0.4163723511604439,0.2018190018039687,0.1383177570093458,0.1608652684747996
0.2208049886621315,0.1863415710503088,0.1228971962616823,0.79863523573201,0.2824881141045959,0.1654338805700884,0.7628349611820685,0.7109474791494477,0.4257694248234106,0.211891160553217,0.1517757009345794,0.1711869990117492
0.2430555555555555,0.2097308031774051,0.1481308411214951,0.7756823821339951,0.3026941362916006,0.1894281075230019,0.7784873528675181,0.7245472988203471,0.4389505549949545,0.2285778713168971,0.1719626168224299,0.190293181069507
0.2586451247165533,0.2287069726390115,0.1771028037383177,0.7583126550868488,0.3125990491283676,0.2105358109327078,0.7951414976208364,0.7370200616124426,0.4496089808274469,0.2420324714371617,0.1882242990654205,0.2070934446030526
0.2631802721088436,0.2370917917034422,0.197663551401869,0.7514888337468983,0.3098256735340728,0.2213602742197365,0.8012772351615326,0.7438575400105192,0.4555373360242179,0.248346361996392,0.1963551401869158,0.2146700340397496
0.2699829931972789,0.2424977934686673,0.1981308411214952,0.7455334987593053,0.3193343898573693,0.2258704672559985,0.8017781116954671,0.7442332256367871,0.4572401614530776,0.2492483463619964,0.1993457943925233,0.2155484791918304
0.2787698412698413,0.2514342453662842,0.2070093457943924,0.7366004962779157,0.3276545166402536,0.2348908533285225,0.8049085900325569,0.7476895333984521,0.4601412714429868,0.2533824413710162,0.204018691588785,0.2196112880202042
0.2867063492063492,0.2610326566637246,0.2214953271028035,0.7277915632754343,0.3328050713153724,0.2455349088941007,0.8121712997746054,0.7543016004207679,0.4661957618567103,0.2608238123872519,0.212429906542056,0.2300428242011639
0.2882653061224489,0.2613636363636363,0.2177570093457944,0.7269230769230769,0.3367670364500792,0.2449936857297492,0.8158026546456298,0.7567811255541363,0.4675832492431886,0.2626277811184606,0.215233644859813,0.2331173822334467
0.2793367346938776,0.2509929390997352,0.2032710280373829,0.7367245657568239,0.3300316957210776,0.2338084069998196,0.810167793638868,0.75099556690961,0.4624117053481331,0.2566145520144318,0.2077570093457943,0.2256505984407598
0.2623299319727891,0.2357678729037952,0.194859813084112,0.752605459057072,0.3102218700475436,0.2197366047266823,0.7963936889556723,0.7416785633781652,0.4545913218970736,0.2469933854479855,0.1949532710280374,0.2115954760074667
0.2545351473922902,0.226279788172992,0.1803738317757009,0.7614143920595534,0.3050713153724247,0.2092729568825544,0.7871274730778863,0.7329626568487488,0.4472754793138244,0.2375225496091401,0.1834579439252336,0.2003953003184363
0.2490079365079365,0.2178949691085613,0.1630841121495328,0.7684863523573201,0.3050713153724247,0.1989897167598772,0.7833708990733783,0.7283041550830265,0.4431130171543894,0.232711966325917,0.1772897196261682,0.1954540463379817
0.2363945578231292,0.2036628420123565,0.144392523364486,0.7821339950372208,0.2951664025356577,0.1838354681580371,0.7774855997996493,0.7232699676910361,0.4368062563067608,0.2257967528562838,0.1683177570093458,0.1890853189853958
0.2151360544217687,0.1799426301853486,0.1135514018691589,0.8047146401985112,0.2785261489698891,0.1583979794335198,0.7648384673178061,0.7114734390262227,0.4247603430877901,0.2109891761876127,0.1506542056074766,0.173163500603931
0.195719954648526,0.1568843777581641,0.0799065420560748,0.8261786600496278,0.2654516640253566,0.1331408984304528,0.7469321312296519,0.6968968367270267,0.4112008072653885,0.1944527961515333,0.1301869158878504,0.1524102338860217
0.1822562358276644,0.1411076787290379,0.0579439252336448,0.8409429280397023,0.2559429477020602,0.1160021648926574,0.7342849987478086,0.6860770906905101,0.4010469223007063,0.1830276608538785,0.1155140186915887,0.1384649170967387
0.1733276643990929,0.1331641659311562,0.0537383177570091,0.8493796526054591,0.2452456418383518,0.1086054483131878,0.7302779864763336,0.6822450973025772,0.3965691220988899,0.1782922429344558,0.1086915887850467,0.1331942461842538
0.1704931972789115,0.13261253309797,0.0607476635514018,0.8508684863523573,0.2385103011093502,0.1095074869204401,0.7327823691460055,0.6838981140581561,0.3980196770938446,0.1797203848466626,0.1103738317757009,0.1358295816404963
0.1649659863945578,0.1270962047661077,0.055607476635514,0.8564516129032258,0.2329635499207606,0.1040952552769259,0.7315301778111696,0.6823953715530843,0.3965691220988899,0.1780667468430547,0.1089719626168224,0.1337432744043043
0.1598639455782312,0.1219108561341571,0.0504672897196259,0.8615384615384617,0.2278129952456418,0.0986830236334114,0.7257700976709242,0.6772860470358404,0.392406659939455,0.172730006013229,0.1028971962616822,0.125837268035577
0.1624149659863945,0.1242277140335393,0.0514018691588784,0.8591811414392061,0.231378763866878,0.1008479162908171,0.7232657150012521,0.6757833045307686,0.3907669021190716,0.1710763680096212,0.101214953271028,0.1244097946634456
0.1700680272108843,0.130406001765225,0.0528037383177571,0.8523573200992557,0.2412836767036449,0.1060797402128811,0.7278988229401452,0.6798407092944624,0.3941725529767911,0.175210463018641,0.105607476635514,0.1299000768639508
0.171485260770975,0.132171226831421,0.055607476635514,0.8507444168734493,0.2420760697305863,0.1080642251488363,0.7326571500125219,0.6840483883086633,0.3977043390514631,0.1793445580276608,0.1109345794392523,0.1347315252003952
0.1663832199546485,0.1268755516328332,0.0500000000000001,0.8558312655086848,0.2373217115689381,0.1028324012267725,0.7309040821437515,0.6820196859268164,0.396127648839556,0.1774654239326518,0.1081308411214953,0.1316569671681124
0.1600056689342403,0.1225728155339806,0.0528037383177571,0.861166253101737,0.2274167987321711,0.0997654699621143,0.7241422489356374,0.6769103614095724,0.3924697275479313,0.1724293445580276,0.1025233644859813,0.1247392115954759
0.1622732426303854,0.1244483671668137,0.0532710280373833,0.8590570719602978,0.2301901743264658,0.1013891394551686,0.7228900576008014,0.6761589901570365,0.3914606458123107,0.1713018641010222,0.1015887850467289,0.1232019325793346
0.1687925170068027,0.130847308031774,0.0588785046728973,0.852605459057072,0.2369255150554675,0.1077034097059354,0.7275231655396944,0.6799158464197159,0.3951816347124116,0.1754359591100421,0.1060747663551401,0.1288020204238497
0.1712018140589569,0.1327228596646072,0.0588785046728973,0.8504962779156328,0.2400950871632329,0.1093270791989896,0.7325319308790382,0.6835975655571417,0.3979566094853683,0.1783674082982561,0.1098130841121495,0.134511913912375
0.1669501133786848,0.1275375110326566,0.0509345794392522,0.855210918114144,0.2377179080824089,0.1033736243911238,0.7315301778111696,0.6823202344278307,0.3965060544904136,0.17708959711365,0.1081308411214953,0.1322059953881629
0.1608560090702948,0.1220211827007943,0.0476635514018689,0.8610421836228288,0.2305863708399366,0.0983222081905106,0.7250187828700225,0.6774363212863475,0.3925327951564076,0.1723541791942273,0.1023364485981308,0.1260568793235972
0.1622732426303854,0.124117387466902,0.0518691588785046,0.8591811414392061,0.2305863708399366,0.1008479162908171,0.7230152767342849,0.6765346757833044,0.391965186680121,0.171677690920024,0.101214953271028,0.1236411551553749
0.1690759637188208,0.1306266548984996,0.0570093457943923,0.852605459057072,0.2381141045958795,0.1071621865415839,0.7291510142749812,0.6801412577954767,0.3949924318869828,0.1756614552014431,0.1059813084112149,0.1296804655759306
0.1716269841269841,0.131729920564872,0.0532710280373833,0.8508684863523573,0.2432646592709983,0.1073425942630344,0.7326571500125219,0.6835975655571417,0.3976412714429868,0.1790438965724594,0.1105607476635514,0.1346217195563852
0.1663832199546485,0.1273168578993821,0.0523364485981308,0.8555831265508685,0.2365293185419968,0.1035540321125743,0.7315301778111696,0.6820196859268164,0.3967583249243188,0.1777660853878532,0.1083177570093457,0.1324256066761831
0.1602891156462584,0.1218005295675198,0.0485981308411214,0.8614143920595534,0.2293977812995245,0.0983222081905106,0.724517906336088,0.6768352242843189,0.3928481331987891,0.1734064942874323,0.1019626168224299,0.1255078511035467
0.1581632653061224,0.11738746690203,0.0369158878504673,0.8647642679900746,0.231378763866878,0.0925491611040951,0.7225144002003506,0.6752573446539935,0.388433400605449,0.1705502104630186,0.096822429906542,0.1184802898869002
0.1417233560090703,0.1022727272727272,0.0275700934579439,0.8805210918114145,0.2123613312202852,0.0782969511095073,0.7225144002003506,0.6702231572620031,0.3777119071644803,0.1628833433553818,0.0797196261682243,0.100032941693203
0.0793650793650793,0.0584730803177405,0.0467289719626169,0.9323821339950372,0.1172741679873217,0.0461843766913224,0.7153769095917856,0.6527913442031709,0.3584132189707366,0.1331930246542393,0.0499065420560747,0.0612715493576369
0.0175736961451247,0.0123565754633715,0.055607476635514,0.9853598014888336,0.0269413629160063,0.0102832401226772,0.7208865514650639,0.6421970095424149,0.3515388496468213,0.1077871316897173,0.0141121495327102,0.0182277369056769
0.0138888888888888,0.0093777581641659,0.0551401869158878,0.988709677419355,0.0217908082408874,0.0077575320223704,0.769221136989732,0.6754827560297544,0.4010469223007063,0.1370264582080577,0.0116822429906542,0.0124080377731415
0.1160714285714285,0.0986319505736981,0.0967289719626166,0.8937965260545907,0.1469889064976228,0.0887605989536352,0.8437265214124718,0.7526485836651888,0.5215060544904137,0.2506764882742032,0.0946728971962616,0.0978368288130009
0.2813208616780045,0.2581641659311562,0.2271028037383178,0.7317617866004964,0.3229001584786053,0.2442720548439473,0.9134735787628347,0.8463445788564128,0.6746972754793137,0.4386650631389056,0.2714953271028037,0.2590315142198309
0.4961734693877551,0.4688879082082965,0.4112149532710278,0.5192307692307693,0.5451664025356576,0.452101749954898,0.9698221888304532,0.935457209407168,0.8179238143289607,0.6419873722188816,0.4898130841121494,0.4708466015153179
0.7030895691609977,0.6890997352162402,0.6616822429906539,0.3048387096774194,0.7282091917591125,0.6804979253112033,0.998121712997746,0.9929371102261628,0.950050454086781,0.8532772098616956,0.7261682242990655,0.6925441967717141
0.8975340136054423,0.8926522506619596,0.8827102803738316,0.1053349875930522,0.9064976228209192,0.8895904744723074,0.948534936138242,0.9670148020136748,0.9933779011099898,0.9852675886951292,0.9302803738317756,0.8939277478862414
0.9910714285714286,0.9917255075022068,0.99392523364486,0.0085607940446649,0.9896988906497622,0.9920620602561788,0.7848735286751815,0.830114959801638,0.8766397578203833,0.9431749849669272,0.9865420560747664,0.9883606017349292
0.9299886621315192,0.927405119152692,0.922429906542056,0.0714640198511166,0.9346275752773376,0.9256720187624028,0.5468319559228649,0.6104891426854008,0.6402623612512612,0.774579073962718,0.8749532710280373,0.9253321620731304
0.7685657596371882,0.7575022065313328,0.7355140186915886,0.2377171215880892,0.788431061806656,0.7506765289554393,0.2972702228900575,0.3411976857765422,0.3738647830474268,0.5513379434756464,0.6903738317757008,0.7606236960579773
0.5650510204081634,0.5446822594880847,0.5051401869158879,0.4464019851116625,0.601822503961965,0.5322027782789103,0.0812672176308539,0.0954241490720565,0.1232971745711402,0.318550811785929,0.4504672897196261,0.5499066652025915
0.3543083900226758,0.3201676963812886,0.2490654205607474,0.6650124069478909,0.4156101426307448,0.2992964098863431,0.004007012271475,0.0,0.0038471241170534,0.1200390859891761,0.2263551401869158,0.3231580103217305
0.2040816326530612,0.1607458075904678,0.0691588785046727,0.820347394540943,0.2820919175911252,0.1342233447591556,0.1173303280741296,0.07874370726576,0.0385343087790111,0.0123271196632591,0.0900934579439252,0.1608652684747996
0.133219954648526,0.0909090909090909,0.0074766355140188,0.8906947890818858,0.208795562599049,0.0651271874436226,0.3092912597044828,0.2488541588398828,0.1449293642785065,0.0085688514732411,0.0389719626168224,0.0915779071044251
0.0918367346938775,0.0621138570167696,0.0214953271028037,0.924937965260546,0.1450079239302694,0.044199891755367,0.4893563736538943,0.4164850852806371,0.2534056508577195,0.05208959711365,0.0315887850467289,0.06456571867794
0.0844671201814059,0.0605692850838482,0.039252336448598,0.9290322580645162,0.1275752773375594,0.0465451921342232,0.6089406461307287,0.5423397700803967,0.3224646821392533,0.1046301864101022,0.0411214953271028,0.0655539694740309
0.1207482993197278,0.0834068843777581,0.016355140186916,0.9003722084367246,0.187797147385103,0.060797402128811,0.6741798146756824,0.6168757983319558,0.359170030272452,0.1384546001202646,0.0621495327102803,0.0854287910398594
0.1543367346938775,0.1122021182700794,0.0275700934579439,0.8693548387096776,0.2301901743264658,0.086415298574779,0.7126220886551465,0.6597039597265008,0.3818113017154389,0.1612297053517739,0.0871962616822429,0.1124409794663445
0.1686507936507936,0.1287511032656663,0.0504672897196259,0.8538461538461539,0.2400950871632329,0.1044560707198267,0.7267718507387929,0.678638515290405,0.3936049445005045,0.1745339747444378,0.1034579439252336,0.1273745470517184
0.1721938775510204,0.1322815533980582,0.0537383177570091,0.8503722084367246,0.2440570522979397,0.1078838174273858,0.7324067117455547,0.6832970170561274,0.3972628657921291,0.1790438965724594,0.109626168224299,0.1331942461842538
0.1663832199546485,0.1277581641659312,0.0537383177570091,0.8553349875930522,0.2357369255150554,0.1042756629983762,0.7310293012772351,0.6814937260500412,0.3959384460141271,0.1768641010222489,0.1073831775700934,0.1309981333040518
0.1607142857142857,0.1222418358340688,0.0490654205607476,0.8610421836228288,0.2297939778129952,0.0988634313548619,0.725144002003506,0.6766849500338117,0.3923435923309787,0.1721286831028262,0.1023364485981308,0.1247392115954759
0.1615646258503401,0.124117387466902,0.0542056074766354,0.8595533498759306,0.2290015847860538,0.1012087317337181,0.7227648384673178,0.6757081674055151,0.391523713420787,0.1713018641010222,0.101214953271028,0.1239705720874052
0.1692176870748299,0.1302956751985878,0.0551401869158878,0.8527295285359803,0.2393026941362915,0.1064405556557821,0.7281492612071124,0.6796152979187017,0.3945509586276488,0.175210463018641,0.1061682242990654,0.1294608542879103
0.1712018140589569,0.1328331862312445,0.0588785046728973,0.8503722084367246,0.2404912836767035,0.1093270791989896,0.7329075882794891,0.6829964685551131,0.397452068617558,0.178968731208659,0.11,0.1347315252003952
0.1672335600907029,0.1279788172992056,0.0514018691588784,0.8548387096774195,0.2381141045958795,0.1039148475554753,0.7305284247433007,0.68209482305207,0.3964429868819373,0.1774654239326518,0.1076635514018691,0.1322059953881629
0.1602891156462584,0.1222418358340688,0.0504672897196259,0.861166253101737,0.2286053882725832,0.0990438390763124,0.7247683446030553,0.6772109099105867,0.3925327951564076,0.1726548406494287,0.1021495327102803,0.1256176567475568
0.1619897959183673,0.124558693733451,0.0546728971962616,0.8591811414392061,0.2293977812995245,0.1017499548980696,0.7233909341347358,0.6757081674055151,0.3911453077699293,0.1709260372820204,0.1010280373831775,0.1232019325793346
0.1690759637188208,0.1310679611650485,0.0588785046728973,0.8523573200992557,0.2373217115689381,0.1078838174273858,0.7278988229401452,0.6802915320459838,0.3943617558022199,0.1749849669272399,0.1058878504672897,0.1290216317118699
0.1720521541950113,0.1327228596646072,0.055607476635514,0.8501240694789083,0.2428684627575277,0.1086054483131878,0.7330328074129727,0.683747839807649,0.3976412714429868,0.1794948887552615,0.1100934579439252,0.1350609421324256
0.1659580498866213,0.1272065313327448,0.0532710280373833,0.8558312655086848,0.2353407290015847,0.1035540321125743,0.7302779864763336,0.6823202344278307,0.3960645812310797,0.1776157546602525,0.1085046728971962,0.1316569671681124
0.1611394557823129,0.1235657546337157,0.0532710280373833,0.8600496277915635,0.2286053882725832,0.1006675085693668,0.7241422489356374,0.6774363212863475,0.3922174571140262,0.1728051713770294,0.1029906542056074,0.1251784341715164
0.163407029478458,0.1253309796999117,0.0532710280373833,0.8580645161290323,0.2317749603803486,0.1021107703409705,0.7227648384673178,0.6763844015327972,0.3912083753784056,0.1721286831028262,0.101214953271028,0.1242999890194356
0.1697845804988662,0.1307369814651368,0.0551401869158878,0.8522332506203475,0.2400950871632329,0.1068013710986829,0.7268970698722764,0.6800661206702231,0.3944248234106962,0.1758117859290439,0.1055140186915887,0.1286922147798396
0.1717687074829932,0.1328331862312445,0.0574766355140186,0.8502481389578164,0.2416798732171157,0.1091466714775391,0.7325319308790382,0.6843489368096776,0.3980827447023208,0.1794948887552615,0.111214953271028,0.1348413308444054
0.1658163265306122,0.1275375110326566,0.0546728971962616,0.8558312655086848,0.2345483359746434,0.1040952552769259,0.730778863010268,0.6828461943046059,0.3968213925327951,0.1776157546602525,0.108411214953271,0.1328648292522235
0.1601473922902494,0.1224624889673433,0.0518691588785046,0.8610421836228288,0.2278129952456418,0.0995850622406638,0.7237665915351865,0.6774363212863475,0.3922174571140262,0.1719031870114251,0.1018691588785046,0.1257274623915669
0.1626984126984127,0.1237864077669902,0.0485981308411214,0.8593052109181142,0.2329635499207606,0.0999458776835648,0.7231404958677685,0.6766098129085582,0.3910191725529768,0.1719031870114251,0.1010280373831775,0.1246294059514659
0.1697845804988662,0.130406001765225,0.0537383177570091,0.8523573200992557,0.2404912836767035,0.1064405556557821,0.7275231655396944,0.6802915320459838,0.3940464177598385,0.1754359591100421,0.1053271028037383,0.1294608542879103
0.171485260770975,0.132171226831421,0.055607476635514,0.8506203473945411,0.2420760697305863,0.1080642251488363,0.7320310543451038,0.683747839807649,0.3969475277497477,0.1782170775706554,0.1098130841121495,0.1338530800483144
0.1659580498866213,0.1277581641659312,0.0551401869158878,0.8555831265508685,0.2345483359746434,0.1044560707198267,0.7302779864763336,0.6820196859268164,0.3962537840565086,0.1770144317498496,0.1087850467289719,0.1317667728121225
0.1600056689342403,0.1229037952338922,0.0542056074766354,0.8609181141439206,0.2266244057052298,0.1003066931264658,0.7253944402704733,0.6771357727853332,0.3925958627648839,0.172730006013229,0.1028971962616822,0.1255078511035467
0.1611394557823129,0.1247793468667255,0.0588785046728973,0.8594292803970224,0.226228209191759,0.102651993505322,0.7230152767342849,0.6763844015327972,0.3917129162462159,0.1719783523752255,0.1014018691588785,0.1242999890194356
0.1686507936507936,0.130847308031774,0.0593457943925235,0.852605459057072,0.2365293185419968,0.1078838174273858,0.7275231655396944,0.6800661206702231,0.3949293642785065,0.1753607937462417,0.1061682242990654,0.1306687163720215
0.1717687074829932,0.1332744924977934,0.0593457943925235,0.85,0.2408874801901743,0.1096878946418906,0.7330328074129727,0.6839732511834097,0.3978304742684157,0.1790438965724594,0.1104672897196261,0.1359393872845064
0.1660997732426303,0.1278684907325684,0.055607476635514,0.8554590570719603,0.2345483359746434,0.1046364784412772,0.7315301778111696,0.6819445488015629,0.3958123107971745,0.17708959711365,0.1080373831775701,0.1324256066761831
0.1600056689342403,0.1224624889673433,0.0523364485981308,0.861166253101737,0.2274167987321711,0.0995850622406638,0.7253944402704733,0.6769103614095724,0.3917759838546922,0.1725796752856283,0.1023364485981308,0.1252882398155265
0.1663832199546485,0.1288614298323036,0.058411214953271,0.8548387096774195,0.233755942947702,0.1060797402128811,0.7243926872026045,0.6802915320459838,0.396127648839556,0.1777660853878532,0.1044859813084112,0.1284726034918194
0.189625850340136,0.1479479258605472,0.0626168224299063,0.8338709677419355,0.2646592709984152,0.1223164351434241,0.737290257951415,0.6946427229694191,0.4154894046417759,0.1972339146121467,0.1213084112149532,0.1450532557373449
0.2091836734693877,0.1640556045895851,0.066822429906542,0.8162531017369727,0.2900158478605388,0.1363882374165613,0.7518156774355121,0.7095950108948832,0.4379414732593339,0.2193325315694528,0.1408411214953271,0.1609750741188096
0.2200963718820861,0.175639894086496,0.0799065420560748,0.8049627791563275,0.2999207606973059,0.1484755547537434,0.7592036063110443,0.7198887970546247,0.4545282542885973,0.2352675886951293,0.1534579439252336,0.1705281651476886
0.2287414965986394,0.1865622241835834,0.0967289719626166,0.7950372208436726,0.304675118858954,0.1605628720909255,0.7628349611820685,0.728229017957773,0.4703582240161452,0.2501503307276007,0.1632710280373831,0.1772263094323048
0.2512755102040816,0.2074139452780229,0.1112149532710281,0.7734491315136477,0.3300316957210776,0.180407721450478,0.7716003005259203,0.7410023292508828,0.4894046417759838,0.2688665063138906,0.1766355140186915,0.1900735697814867
0.2733843537414965,0.2289276257722859,0.1289719626168225,0.7516129032258065,0.3534072900158478,0.2013350171387335,0.7865013774104683,0.7570816740551506,0.5119197780020182,0.2914912808177992,0.1957943925233644,0.2096189744152849
0.2929421768707483,0.2481244483671668,0.1462616822429905,0.7323821339950373,0.3736133122028526,0.2204582356124842,0.8027798647633358,0.7746637613644901,0.5355701311806256,0.3159951894167168,0.215607476635514,0.2281761282529922
0.3044217687074829,0.2610326566637246,0.1630841121495328,0.7199751861042184,0.3823296354992075,0.2343496301641709,0.8114199849737039,0.7860846044030355,0.553481331987891,0.3338093806374023,0.2294392523364485,0.2393763039420226
0.3154761904761905,0.2718446601941748,0.1724299065420562,0.709181141439206,0.3938193343898574,0.2448132780082987,0.8148009015777611,0.7944248253061837,0.5677976791120081,0.347489476849068,0.2386915887850466,0.2450861974305479
0.3324829931972789,0.2890556045895852,0.1887850467289718,0.6920595533498759,0.4108557844690966,0.2621324192675447,0.8223140495867769,0.8047186114659253,0.5855827447023209,0.3649278412507516,0.251214953271028,0.2554079279674975
0.3560090702947845,0.3106796116504854,0.2037383177570091,0.6694789081885856,0.4370047543581616,0.2826988995128991,0.8359629351364888,0.8192200766398677,0.6063950554994954,0.3859741431148527,0.2692523364485981,0.2729768310091138
0.3732993197278911,0.3262356575463371,0.2121495327102805,0.6532258064516129,0.457606973058637,0.2971315172289374,0.8491109441522664,0.8334961304380494,0.625441473259334,0.4046903187011425,0.2864485981308411,0.2884594268145382
0.3805272108843537,0.3327449249779347,0.2163551401869158,0.6464019851116626,0.4663232963549921,0.3032653797582537,0.8543701477585776,0.8418363513411976,0.6377396569122098,0.4184455802766085,0.2958878504672896,0.2959262106072252
0.3860544217687074,0.3384819064430714,0.2219626168224297,0.6408188585607941,0.4714738510301109,0.3088580191232185,0.8541197094916103,0.845217521977609,0.6466321897073662,0.4247594708358388,0.3,0.296914461403316
0.3962585034013605,0.3496248896734334,0.2355140186915887,0.6300248138957817,0.4801901743264659,0.3205845210174995,0.8590032556974705,0.8510782177473889,0.657353683148335,0.4356584485868912,0.3065420560747663,0.305369495992094
0.4155328798185941,0.3661738746690203,0.2420560747663552,0.6122828784119108,0.5039619651347068,0.3355583618978892,0.8683946907087403,0.8613720039071304,0.6690842583249242,0.4496392062537582,0.3179439252336448,0.3170088942571648
0.4227607709750567,0.3740070609002648,0.2518691588785048,0.6047146401985112,0.509904912836767,0.3438571170846111,0.8779113448534936,0.870388458937561,0.6800580221997982,0.460838845460012,0.3294392523364486,0.327989458658175
0.4169501133786847,0.3724624889673433,0.2640186915887851,0.6081885856079405,0.4968304278922344,0.3447591556918635,0.8766591535186575,0.8712901044406041,0.6842204843592331,0.4646722790138304,0.331214953271028,0.3296365433183265
0.4135487528344671,0.3686010591350397,0.2588785046728971,0.6117866004962779,0.4944532488114104,0.3406097780985025,0.8713999499123466,0.8677586595536854,0.6825176589303733,0.4615153337342152,0.3271028037383177,0.3238168441857911
0.4155328798185941,0.3710282436010591,0.2621495327102802,0.6095533498759306,0.4956418383518224,0.3433158939202598,0.8690207863761583,0.8667818769253889,0.6811932391523713,0.4594107035478051,0.3259813084112149,0.3223893708136597
0.4220521541950113,0.3774271844660194,0.2682242990654204,0.6031017369727047,0.502377179080824,0.3496301641710264,0.8727773603806661,0.8702381846870538,0.6843466195761856,0.4633944678292243,0.33,0.3277698473701548
0.4230442176870748,0.3762135922330097,0.2598130841121495,0.6033498759305211,0.5071315372424722,0.3471044560707197,0.8782870022539443,0.8724171613194078,0.6827699293642785,0.4630938063740228,0.3319626168224299,0.3300757658943669
0.4151077097505669,0.3661738746690203,0.2434579439252334,0.612406947890819,0.5031695721077654,0.3357387696193397,0.8737791134485349,0.8666316026748816,0.6741296670030272,0.4556524353577871,0.3250467289719626,0.3228285933897002
0.3995181405895691,0.3529346866725507,0.238785046728972,0.6266749379652605,0.4833597464342313,0.3240122677250586,0.8635111445028799,0.8560372680141257,0.6625252270433905,0.4419723391461214,0.3121495327102803,0.3111891951246293
0.3920068027210884,0.3448808473080318,0.2294392523364486,0.6346153846153846,0.4766244057052298,0.3155331048168861,0.8551214625594791,0.8479975956119918,0.6511099899091826,0.4283674082982561,0.3031775700934579,0.2999890194355989
0.3893140589569161,0.3421226831421006,0.2261682242990654,0.6373449131513648,0.4742472266244057,0.3126465812736785,0.8536188329576759,0.8440904650988053,0.6422174571140262,0.4209260372820204,0.2972897196261682,0.2966948501152959
0.3795351473922902,0.3314210061782877,0.2135514018691588,0.6475186104218362,0.4659270998415213,0.3016417102651993,0.8519909842223891,0.8391314148320685,0.63162209889001,0.4117558628983764,0.2914018691588785,0.2944987372350938
0.3606859410430839,0.3134377758164166,0.1995327102803739,0.6660049627791564,0.4453248811410459,0.284142161284503,0.8428499874780866,0.8260575550379442,0.615098385469223,0.3944678292242934,0.2772897196261682,0.2801141978697705
0.3384353741496598,0.293909973521624,0.1901869158878505,0.6866004962779156,0.4183835182250396,0.2662817968609056,0.8278236914600551,0.8105041701104515,0.5945383451059535,0.3734966927239928,0.2587850467289719,0.2623256835401339
0.3238378684807256,0.2803398058252427,0.1808411214953271,0.700620347394541,0.4021394611727417,0.2534728486379217,0.8171800651139494,0.7990833270719062,0.5753657921291624,0.3550811785929044,0.2441121495327102,0.2491490062589216
0.314625850340136,0.2709620476610768,0.1714953271028037,0.7100496277915633,0.393026941362916,0.2439112394010463,0.8116704232406712,0.7899917349162221,0.5594096871846619,0.339371617558629,0.2337383177570093,0.2416822224662347
0.3010204081632653,0.2566195939982348,0.1556074766355139,0.7239454094292804,0.3807448494453249,0.2292982139635575,0.808289506636614,0.780900142760538,0.544462663975782,0.3243385447985568,0.2234579439252336,0.2348742725376084
0.2777777777777778,0.2335613415710503,0.1350467289719626,0.7471464019851117,0.3569730586370839,0.2063864333393469,0.7965189080891559,0.7656473063340596,0.5227674066599394,0.3027660853878533,0.2064485981308411,0.218403425936093
0.25609410430839,0.2129302736098853,0.1182242990654204,0.7682382133995038,0.3335974643423138,0.1863611762583438,0.7793638868019033,0.7477646705237058,0.4991801210898082,0.2790138304269393,0.184018691588785,0.1964422971340726
0.2409297052154194,0.197153574580759,0.1018691588785048,0.7837468982630273,0.3193343898573693,0.1703048890492512,0.7668419734535437,0.7335637538507777,0.4780524722502522,0.2586440168370414,0.168411214953271,0.1812891182606786
0.2277494331065759,0.1856796116504854,0.0967289719626166,0.7959057071960299,0.3030903328050713,0.1598412412051235,0.7618332081141999,0.7237207904425575,0.4615918264379414,0.2418069753457607,0.1574766355140187,0.1736027231799714
0.2151360544217687,0.1723300970873786,0.0817757009345793,0.8089330024813896,0.2919968304278922,0.1461302543748872,0.7569496619083396,0.7144789240363663,0.4455095862764883,0.2273752254960914,0.1478504672897196,0.1659163280992643
0.1930272108843537,0.1504854368932038,0.0621495327102805,0.830893300248139,0.2694136291600634,0.1243009200793793,0.7454295016278487,0.700503418739199,0.4252648839556003,0.2071557426337943,0.1303738317757009,0.1498847040737893
0.1710600907029478,0.1318402471315092,0.055607476635514,0.8511166253101737,0.2412836767036449,0.1078838174273858,0.7292762334084647,0.6857765421894957,0.4039480322906155,0.1848316295850872,0.1115887850467289,0.1331942461842538
0.1624149659863945,0.1256619593998235,0.0579439252336448,0.8583126550868487,0.2286053882725832,0.1031932166696733,0.7233909341347358,0.6777368697873619,0.3927219979818365,0.1729555021046302,0.1018691588785046,0.1241901833754254
0.1687925170068027,0.1301853486319505,0.0560747663551403,0.8529776674937966,0.2381141045958795,0.1066209633772324,0.7267718507387929,0.6799909835449696,0.3944878910191725,0.1758117859290439,0.105607476635514,0.1288020204238497
0.1710600907029478,0.1327228596646072,0.0588785046728973,0.8506203473945411,0.2400950871632329,0.1091466714775391,0.7320310543451038,0.6836727026823952,0.3973259334006054,0.1790438965724594,0.1098130841121495,0.1340726913363346
0.1652494331065759,0.1274271844660194,0.0560747663551403,0.8560794044665013,0.2329635499207606,0.1042756629983762,0.729526671675432,0.6823202344278307,0.3956231079717456,0.1767137702946482,0.1074766355140186,0.131217744592072
0.1590136054421768,0.1221315092674315,0.0542056074766354,0.861786600496278,0.225039619651347,0.0997654699621143,0.7253944402704733,0.6777368697873619,0.3920913218970736,0.1724293445580276,0.1020560747663551,0.1246294059514659
0.1617063492063492,0.1244483671668137,0.055607476635514,0.8593052109181142,0.2282091917591124,0.10193036261952,0.7247683446030553,0.6766849500338117,0.3917759838546922,0.1717528562838244,0.1013084112149532,0.123750960799385
0.1700680272108843,0.1307369814651368,0.0542056074766354,0.8521091811414393,0.2408874801901743,0.1066209633772324,0.7290257951414976,0.681193177549027,0.3951816347124116,0.1761124473842453,0.1060747663551401,0.1297902712199407
0.171343537414966,0.1327228596646072,0.058411214953271,0.8503722084367246,0.2408874801901743,0.1091466714775391,0.7339093413473579,0.6850251709369599,0.3979566094853683,0.179795550210463,0.1110280373831775,0.1350609421324256
0.1658163265306122,0.1277581641659312,0.0560747663551403,0.8555831265508685,0.233755942947702,0.1046364784412772,0.7316553969446532,0.6824705086783379,0.3963799192734611,0.1780667468430547,0.108411214953271,0.1328648292522235
0.1604308390022675,0.1221315092674315,0.0495327102803739,0.861166253101737,0.2290015847860538,0.0988634313548619,0.725144002003506,0.6776617326621084,0.3925958627648839,0.1732561635598316,0.102803738317757,0.1260568793235972
0.1622732426303854,0.1244483671668137,0.0532710280373833,0.8590570719602978,0.2301901743264658,0.1013891394551686,0.7233909341347358,0.6763844015327972,0.3912083753784056,0.171677690920024,0.1014953271028037,0.1234215438673547
0.1686507936507936,0.130847308031774,0.0593457943925235,0.852605459057072,0.2365293185419968,0.1077034097059354,0.7277736038066616,0.6796904350439552,0.3943617558022199,0.1750601322910402,0.1055140186915887,0.1289118260678599
0.1719104308390022,0.1325022065313327,0.055607476635514,0.8503722084367246,0.242472266244057,0.1084250405917373,0.7320310543451038,0.6834472913066345,0.3980196770938446,0.1788184004810583,0.1107476635514018,0.1353903590644559
0.1658163265306122,0.1274271844660194,0.0542056074766354,0.8558312655086848,0.2345483359746434,0.1040952552769259,0.7302779864763336,0.68209482305207,0.3963799192734611,0.1769392663860493,0.1082242990654205,0.1317667728121225
0.1597222222222222,0.122352162400706,0.0528037383177571,0.8614143920595534,0.2266244057052298,0.0995850622406638,0.7248935637365389,0.6773611841610939,0.3921543895055499,0.1725796752856283,0.102429906542056,0.1246294059514659
0.1618480725623582,0.1235657546337157,0.0514018691588784,0.8596774193548387,0.2305863708399366,0.1003066931264658,0.7231404958677685,0.6762341272822902,0.3913345105953582,0.1713018641010222,0.101214953271028,0.1240803777314153
0.1687925170068027,0.1298543689320388,0.0546728971962616,0.8531017369727047,0.2389064976228209,0.1060797402128811,0.7277736038066616,0.680441806296491,0.3948032290615539,0.1752856283824413,0.1060747663551401,0.1283627978478093
0.1719104308390022,0.1331641659311562,0.058411214953271,0.85,0.2416798732171157,0.1095074869204401,0.7321562734785875,0.6841235254339169,0.3980827447023208,0.1786680697534576,0.1104672897196261,0.134511913912375
0.1658163265306122,0.1279788172992056,0.0565420560747661,0.8554590570719603,0.233755942947702,0.1048168861627277,0.7306536438767843,0.68209482305207,0.3967583249243188,0.1776157546602525,0.1085981308411214,0.1324256066761831
0.1588718820861678,0.1227934686672551,0.0579439252336448,0.8615384615384617,0.2234548335974643,0.1008479162908171,0.724517906336088,0.6770606356600796,0.3927219979818365,0.1726548406494287,0.1026168224299065,0.1255078511035467
0.1615646258503401,0.124117387466902,0.0542056074766354,0.8595533498759306,0.2286053882725832,0.1012087317337181,0.7213874279989982,0.6762341272822902,0.391082240161453,0.1707757065544197,0.1002803738317756,0.1232019325793346
0.169359410430839,0.1307369814651368,0.0565420560747661,0.8524813895781639,0.2389064976228209,0.1071621865415839,0.7276483846731779,0.6802915320459838,0.3944248234106962,0.1749098015634395,0.105607476635514,0.1292412429998902
0.1719104308390022,0.1329435127978817,0.0579439252336448,0.85,0.2416798732171157,0.1091466714775391,0.7330328074129727,0.6844992110601847,0.398335015136226,0.1795700541190619,0.1111214953271027,0.1357197759964862
0.1655328798185941,0.1280891438658428,0.0574766355140186,0.8555831265508685,0.2329635499207606,0.1051777016056287,0.7306536438767843,0.6820196859268164,0.3964429868819373,0.1778412507516536,0.1087850467289719,0.1326452179642033
0.1595804988662131,0.1221315092674315,0.0523364485981308,0.8615384615384617,0.2270206022187004,0.0992242467977629,0.724267468069121,0.6770606356600796,0.3922174571140262,0.1725796752856283,0.1026168224299065,0.1253980454595366
0.1607142857142857,0.1251103265666372,0.061214953271028,0.8594292803970224,0.2246434231378763,0.1033736243911238,0.7216378662659654,0.6754076189045006,0.3913975782038345,0.1711515333734215,0.1009345794392523,0.1230921269353244
0.1676587301587301,0.1310679611650485,0.0635514018691588,0.8529776674937966,0.2333597464342313,0.1087858560346383,0.7268970698722764,0.6799158464197159,0.3949924318869828,0.175210463018641,0.1061682242990654,0.1290216317118699
0.1697845804988662,0.1325022065313327,0.0621495327102805,0.8512406947890819,0.2369255150554675,0.1096878946418906,0.7329075882794891,0.6838229769329026,0.3981458123107971,0.1790438965724594,0.1113084112149532,0.1341824969803448
0.1655328798185941,0.1267652250661959,0.0523364485981308,0.8563275434243177,0.2349445324881141,0.103012808948223,0.7316553969446532,0.6821699601773236,0.3966952573158425,0.178141912206855,0.1092523364485981,0.1318765784561326
0.1605725623582766,0.122352162400706,0.0504672897196259,0.8610421836228288,0.2290015847860538,0.0990438390763124,0.7247683446030553,0.6774363212863475,0.3925327951564076,0.1736319903788334,0.1030841121495327,0.1250686285275062
0.1624149659863945,0.1240070609002648,0.0509345794392522,0.8593052109181142,0.231378763866878,0.1004871008479163,0.722389181066867,0.6764595386580509,0.3915867810292633,0.1718280216476247,0.1016822429906541,0.1233117382233446
0.1676587301587301,0.1300750220653133,0.0593457943925235,0.8534739454094293,0.2353407290015847,0.1071621865415839,0.7278988229401452,0.6805920805469982,0.3946140262361251,0.1758869512928442,0.1061682242990654,0.1295706599319205
0.1707766439909297,0.1322815533980582,0.058411214953271,0.8509925558312657,0.2396988906497623,0.1087858560346383,0.7322814926120711,0.6841235254339169,0.397893541876892,0.179795550210463,0.1113084112149532,0.1351707477764357
0.1658163265306122,0.1281994704324801,0.0570093457943923,0.8553349875930522,0.2333597464342313,0.1051777016056287,0.7302779864763336,0.6814937260500412,0.3960645812310797,0.1776157546602525,0.1086915887850467,0.1326452179642033
0.1595804988662131,0.1225728155339806,0.0542056074766354,0.8612903225806452,0.2258320126782884,0.1001262854050153,0.7233909341347358,0.6763844015327972,0.391965186680121,0.1720535177390258,0.1021495327102803,0.1253980454595366
0.1611394557823129,0.1246690203000882,0.0579439252336448,0.8594292803970224,0.2266244057052298,0.1024715857838715,0.7220135236664161,0.6751822075287399,0.3909561049445005,0.1704750450992183,0.1004672897196261,0.122652904359284
0.1686507936507936,0.1311782877316858,0.0607476635514018,0.8524813895781639,0.2357369255150554,0.1084250405917373,0.7273979464062108,0.6801412577954767,0.3943617558022199,0.1745339747444378,0.1057009345794392,0.1285824091358296
0.1706349206349206,0.1319505736981465,0.0574766355140186,0.8512406947890819,0.2400950871632329,0.1082446328702868,0.7322814926120711,0.683747839807649,0.3977674066599394,0.1784425736620565,0.1102803738317756,0.1344021082683649
0.1655328798185941,0.1269858781994704,0.0532710280373833,0.8562034739454095,0.2345483359746434,0.1035540321125743,0.7305284247433007,0.6819445488015629,0.3965060544904136,0.1768641010222489,0.1089719626168224,0.1330844405402437
0.159438775510204,0.1221315092674315,0.0528037383177571,0.8615384615384617,0.2266244057052298,0.0994046545192134,0.7250187828700225,0.6772860470358404,0.3923435923309787,0.1723541791942273,0.102803738317757,0.1261666849676073
0.1617063492063492,0.1242277140335393,0.0537383177570091,0.8594292803970224,0.2290015847860538,0.1012087317337181,0.7221387427998998,0.6760087159065293,0.3917129162462159,0.1714521948286229,0.101214953271028,0.1236411551553749
0.1687925170068027,0.1299646954986761,0.0551401869158878,0.8531017369727047,0.2385103011093502,0.1062601479343316,0.7276483846731779,0.6802915320459838,0.3949293642785065,0.1749849669272399,0.1064485981308411,0.1293510486439002
0.1704931972789115,0.1325022065313327,0.0598130841121493,0.8508684863523573,0.2389064976228209,0.1093270791989896,0.7329075882794891,0.6839732511834097,0.3977674066599394,0.1788184004810583,0.110841121495327,0.1340726913363346
0.1646825396825396,0.1276478375992939,0.0588785046728973,0.8562034739454095,0.2309825673534072,0.1049972938841782,0.7310293012772351,0.6822450973025772,0.3966321897073662,0.1778412507516536,0.108411214953271,0.1322059953881629
0.1591553287981859,0.1215798764342453,0.0514018691588784,0.8620347394540944,0.2266244057052298,0.0986830236334114,0.7248935637365389,0.6775865955368547,0.3929742684157417,0.1734064942874323,0.1038317757009345,0.1262764906116174
0.1607142857142857,0.1233451015004413,0.0532710280373833,0.8604218362282879,0.2282091917591124,0.1004871008479163,0.7230152767342849,0.6766849500338117,0.3916498486377396,0.1713770294648226,0.1013084112149532,0.1244097946634456
0.1686507936507936,0.1297440423654016,0.0551401869158878,0.853225806451613,0.2385103011093502,0.1060797402128811,0.7280240420736288,0.6803666691712374,0.3946140262361251,0.1758117859290439,0.105607476635514,0.1302294937959811
0.1707766439909297,0.1325022065313327,0.0593457943925235,0.8508684863523573,0.2396988906497623,0.1091466714775391,0.7337841222138742,0.6838981140581561,0.3981458123107971,0.1795700541190619,0.1107476635514018,0.1356099703524761
0.1656746031746031,0.1279788172992056,0.0570093457943923,0.8555831265508685,0.2333597464342313,0.1049972938841782,0.7320310543451038,0.6822450973025772,0.3963168516649848,0.1775405892964522,0.1085046728971962,0.1324256066761831
0.1598639455782312,0.1225728155339806,0.0532710280373833,0.861166253101737,0.2266244057052298,0.0999458776835648,0.7247683446030553,0.6769103614095724,0.3922174571140262,0.1723541791942273,0.1016822429906541,0.1252882398155265
0.161281179138322,0.1237864077669902,0.0542056074766354,0.859925558312655,0.2282091917591124,0.1010283240122676,0.7232657150012521,0.6763844015327972,0.3915867810292633,0.1718280216476247,0.1014018691588785,0.1244097946634456
0.1679421768707482,0.1298543689320388,0.0574766355140186,0.8535980148883375,0.2361331220285261,0.1066209633772324,0.7280240420736288,0.6805169434217446,0.3949293642785065,0.1754359591100421,0.1055140186915887,0.1300098825079609
0.171343537414966,0.1323918799646954,0.0570093457943923,0.8506203473945411,0.2412836767036449,0.1086054483131878,0.7330328074129727,0.6838229769329026,0.3981458123107971,0.178968731208659,0.1100934579439252,0.1342923026243549
0.1666666666666666,0.1273168578993821,0.0509345794392522,0.8554590570719603,0.2373217115689381,0.1033736243911238,0.7311545204107187,0.6819445488015629,0.3970105953582239,0.1777660853878532,0.1090654205607476,0.1324256066761831
0.1595804988662131,0.1221315092674315,0.0523364485981308,0.8615384615384617,0.2266244057052298,0.0994046545192134,0.7255196594039569,0.6771357727853332,0.3927219979818365,0.1726548406494287,0.1028971962616822,0.1257274623915669
0.1621315192743764,0.1240070609002648,0.0518691588785046,0.8593052109181142,0.2305863708399366,0.1008479162908171,0.7233909341347358,0.6763844015327972,0.3917759838546922,0.1720535177390258,0.1015887850467289,0.1239705720874052
0.1680839002267573,0.130406001765225,0.0588785046728973,0.853225806451613,0.2357369255150554,0.1073425942630344,0.7272727272727273,0.6799909835449696,0.3946140262361251,0.1757366205652435,0.1057009345794392,0.1293510486439002
0.1709183673469388,0.13261253309797,0.0593457943925235,0.8507444168734493,0.2396988906497623,0.1091466714775391,0.7317806160781366,0.6845743481854384,0.3979566094853683,0.1792693926638605,0.1099065420560747,0.1342923026243549
0.1655328798185941,0.1274271844660194,0.0551401869158878,0.8559553349875932,0.233755942947702,0.1040952552769259,0.7317806160781366,0.6825456458035914,0.3961907164480323,0.1776909200240529,0.1085981308411214,0.1325354123201932
0.1643990929705215,0.1257722859664606,0.0518691588785046,0.8573200992555832,0.233755942947702,0.1021107703409705,0.728900576008014,0.6797655721692087,0.3948032290615539,0.1759621166566446,0.1062616822429906,0.1293510486439002
0.1819727891156462,0.1424315975286848,0.0644859813084112,0.8403225806451613,0.2531695721077654,0.1181670575500631,0.7359128474830954,0.6860770906905101,0.4024344096871846,0.1845309681298857,0.1169158878504672,0.1383551114527286
0.2037981859410431,0.1660414827890556,0.0925233644859814,0.8174937965260547,0.2717908082408874,0.1428829153887786,0.7505634861006761,0.6998271846119167,0.413975782038345,0.1988123872519543,0.1347663551401869,0.1571318765784561
0.2208049886621315,0.1857899382171226,0.1200934579439253,0.7990074441687345,0.2836767036450079,0.1643514342413854,0.767968945654896,0.7140281012848448,0.4263370332996972,0.2141461214672279,0.1539252336448598,0.1761282529922037
0.2314342403628118,0.1996910856134157,0.144392523364486,0.7864764267990075,0.288431061806656,0.1805881291719285,0.7766090658652642,0.7224434593132466,0.4361125126135216,0.2257967528562838,0.1677570093457943,0.1869990117492039
0.2396541950113379,0.2109443954104148,0.1644859813084111,0.7765508684863524,0.2912044374009508,0.193577485116363,0.7814926120711244,0.7261251784506725,0.4410317860746719,0.2312838244137101,0.175607476635514,0.1921598770176786
0.2534013605442177,0.2263901147396293,0.1845794392523365,0.7619106699751861,0.3019017432646593,0.2099945877683565,0.7892561983471074,0.7346908107295814,0.4475908173562058,0.2388755261575466,0.1854205607476635,0.2012737454705171
0.2726757369614512,0.2442630185348632,0.1967289719626169,0.7433002481389578,0.3236925515055467,0.2269529135847013,0.8004007012271476,0.744984596889323,0.4572401614530776,0.2499248346361996,0.1990654205607476,0.2157680904798506
0.2858560090702948,0.256288614298323,0.2042056074766354,0.7307692307692308,0.3391442155309033,0.2383186000360815,0.8115452041071876,0.7529491321662033,0.4649974772956609,0.2592453397474443,0.2100934579439252,0.2277369056769517
0.2825963718820862,0.2568402471315093,0.2172897196261682,0.7320099255583127,0.3288431061806656,0.2412051235792891,0.8144252441773102,0.7559546171763468,0.4677093844601412,0.262101623571858,0.2137383177570093,0.231250686285275
0.2777777777777778,0.2529788172992057,0.2163551401869158,0.7362282878411911,0.3225039619651347,0.2379577845931805,0.8087903831705484,0.7520474866631602,0.4643037336024218,0.2585688514732411,0.2099065420560747,0.2260898210168002
0.2791950113378685,0.2513239187996469,0.2051401869158879,0.7364764267990075,0.3292393026941362,0.2343496301641709,0.8041572752316554,0.7474641220226913,0.4603304742684156,0.2534576067348166,0.2034579439252336,0.2203799275282749
0.2776360544217687,0.2498896734333627,0.2042056074766354,0.7379652605459058,0.3272583201267828,0.2330867761140176,0.8031555221637866,0.7465624765196484,0.4599520686175579,0.2527811184606133,0.2021495327102803,0.219391676732184
0.2671485260770975,0.2409532215357458,0.2009345794392522,0.7476426799007445,0.3141838351822504,0.2251488363701966,0.8011520160280491,0.7453602825155908,0.4573032290615539,0.2499248346361996,0.1982242990654205,0.216207313055891
0.2508503401360544,0.2228596646072374,0.1785046728971964,0.7648883374689828,0.3007131537242472,0.2060256178964459,0.7916353618832958,0.7359681418588924,0.4486629667003027,0.2393265183403488,0.1858878504672897,0.2046777204348303
0.2311507936507936,0.2014563106796116,0.1523364485981307,0.7856079404466502,0.2844690966719493,0.1834746527151361,0.7747307788630102,0.7220677736869787,0.4371846619576185,0.2257967528562838,0.1683177570093458,0.1857911496650927
0.2181122448979592,0.1855692850838481,0.12803738317757,0.8002481389578164,0.2765451664025357,0.1657946960129893,0.762083646381167,0.7106469306484334,0.4254540867810292,0.2115153337342152,0.1509345794392523,0.1708575820797189
0.2090419501133787,0.1736540158870256,0.1074766355140187,0.8109181141439207,0.2725832012678288,0.152083709182753,0.7556974705735036,0.7044105492523856,0.4185166498486377,0.2032471437161755,0.1414018691588784,0.1631711869990117
0.1978458049886621,0.1585392762577228,0.080373831775701,0.8243176178660051,0.268621236133122,0.1345841602020566,0.7494365138993238,0.6990006762341272,0.4125882946518667,0.196256764882742,0.1322429906542055,0.154935763698254
0.1767290249433106,0.1371359223300971,0.0598130841121493,0.8456575682382135,0.2476228209191758,0.1129352336279992,0.7364137240170298,0.6880306559471034,0.4022452068617557,0.1839296452194828,0.1165420560747663,0.1405512243329306
0.1609977324263038,0.1234554280670785,0.0532710280373833,0.8601736972704715,0.2286053882725832,0.1004871008479163,0.7248935637365389,0.6774363212863475,0.3927219979818365,0.1728803367408298,0.1034579439252336,0.1262764906116174
0.1618480725623582,0.1246690203000882,0.055607476635514,0.8591811414392061,0.2286053882725832,0.10193036261952,0.7228900576008014,0.6761589901570365,0.391082240161453,0.1711515333734215,0.1008411214953271,0.1234215438673547
0.1687925170068027,0.1306266548984996,0.0574766355140186,0.8527295285359803,0.2377179080824089,0.1071621865415839,0.7267718507387929,0.6799909835449696,0.3941094853683148,0.1755111244738424,0.1053271028037383,0.1288020204238497
0.1712018140589569,0.13261253309797,0.0579439252336448,0.8504962779156328,0.2408874801901743,0.1089662637560886,0.7322814926120711,0.6843489368096776,0.3975782038345106,0.1791942273000601,0.11,0.134511913912375
0.1665249433106576,0.1273168578993821,0.0514018691588784,0.8555831265508685,0.2369255150554675,0.1033736243911238,0.7310293012772351,0.6827710571793524,0.3960645812310797,0.1777660853878532,0.108411214953271,0.1322059953881629
0.1605725623582766,0.1231244483671668,0.0528037383177571,0.860545905707196,0.2278129952456418,0.1001262854050153,0.724267468069121,0.6772860470358404,0.3924697275479313,0.1733313289236319,0.1027102803738317,0.1249588228834962
0.1615646258503401,0.1244483671668137,0.055607476635514,0.8594292803970224,0.2282091917591124,0.1017499548980696,0.7227648384673178,0.6756330302802614,0.3915867810292633,0.1719783523752255,0.1008411214953271,0.1230921269353244
0.1686507936507936,0.1302956751985878,0.0565420560747661,0.8529776674937966,0.2377179080824089,0.1068013710986829,0.7275231655396944,0.680441806296491,0.3946140262361251,0.1757366205652435,0.1053271028037383,0.1301196881519709
0.1727607709750567,0.1336054721977052,0.0574766355140186,0.849255583126551,0.2428684627575277,0.1096878946418906,0.7320310543451038,0.6840483883086633,0.3977674066599394,0.1786680697534576,0.1100934579439252,0.1350609421324256
0.1672335600907029,0.1281994704324801,0.0532710280373833,0.8548387096774195,0.2373217115689381,0.1044560707198267,0.7312797395442023,0.682620782928845,0.3963799192734611,0.1775405892964522,0.1085981308411214,0.1324256066761831
0.1605725623582766,0.1222418358340688,0.0495327102803739,0.8610421836228288,0.2293977812995245,0.0988634313548619,0.7256448785374405,0.6772860470358404,0.3923435923309787,0.1726548406494287,0.1027102803738317,0.1255078511035467
0.1619897959183673,0.1242277140335393,0.0532710280373833,0.8593052109181142,0.2297939778129952,0.1012087317337181,0.7232657150012521,0.6757833045307686,0.3913345105953582,0.1714521948286229,0.1015887850467289,0.1233117382233446
0.1678004535147392,0.1305163283318623,0.0607476635514018,0.853225806451613,0.2345483359746434,0.1078838174273858,0.7278988229401452,0.6796152979187017,0.3946140262361251,0.1752856283824413,0.1058878504672897,0.1285824091358296
0.1700680272108843,0.1332744924977934,0.0649532710280374,0.8507444168734493,0.2361331220285261,0.110950748692044,0.7336589030803906,0.6838981140581561,0.3981458123107971,0.1800210463018641,0.111214953271028,0.1351707477764357
0.1652494331065759,0.1286407766990291,0.061214953271028,0.8553349875930522,0.2309825673534072,0.1064405556557821,0.7324067117455547,0.6825456458035914,0.3970105953582239,0.178141912206855,0.1091588785046728,0.1331942461842538
0.159438775510204,0.1230141218005295,0.0565420560747661,0.8610421836228288,0.225039619651347,0.1008479162908171,0.7258953168044077,0.6775865955368547,0.3925958627648839,0.1729555021046302,0.1035514018691588,0.1261666849676073
0.161422902494331,0.1242277140335393,0.0551401869158878,0.8595533498759306,0.2282091917591124,0.1015695471766191,0.7233909341347358,0.6765346757833044,0.3917759838546922,0.1719031870114251,0.1022429906542056,0.1246294059514659
0.1682256235827664,0.130847308031774,0.0607476635514018,0.8528535980148884,0.2353407290015847,0.1080642251488363,0.7281492612071124,0.6806672176722519,0.3947401614530776,0.1759621166566446,0.1065420560747663,0.1302294937959811
0.1692176870748299,0.1310679611650485,0.058411214953271,0.8522332506203475,0.2377179080824089,0.1077034097059354,0.7317806160781366,0.6846494853106919,0.397452068617558,0.1793445580276608,0.1107476635514018,0.1338530800483144
0.1537698412698412,0.1133053839364519,0.0341121495327103,0.8691066997518611,0.226228209191759,0.0885801912321847,0.7283996994740797,0.6797655721692087,0.3884964682139253,0.1728803367408298,0.0972897196261682,0.1173822334467991
0.1020408163265306,0.072594880847308,0.0322429906542054,0.9146401985111664,0.1549128367670364,0.0550243550423957,0.712121212121212,0.6572244345931325,0.3647199798183652,0.1447684906794948,0.0600934579439252,0.0749972548588997
0.0386904761904761,0.0280229479258605,0.0523364485981308,0.9673697270471464,0.0578446909667195,0.0223705574598592,0.703481091910844,0.6367871365241565,0.344412209889001,0.1099669272399278,0.0226168224299065,0.0277808279345558
0.0113378684807256,0.0075022065313326,0.055607476635514,0.990818858560794,0.0182250396196513,0.0063142702507667,0.7366641622839969,0.6521151100758885,0.3676210898082744,0.1136500300661455,0.005233644859813,0.005380476556495
0.0642006802721088,0.0521844660194174,0.0710280373831776,0.942679900744417,0.0855784469096672,0.0456431535269709,0.8132982719759579,0.7181606431737921,0.4585015136226034,0.1888905592303066,0.0520560747663551,0.0539145712089601
0.1903344671201814,0.1705648720211826,0.1560747663551402,0.8208436724565757,0.2258320126782884,0.1589392025978711,0.8868019033308289,0.8028401833345855,0.6020433905146316,0.343956704750451,0.1791588785046728,0.1760184473481936
0.3738662131519275,0.3489629302736099,0.3060747663551402,0.6401985111662531,0.4187797147385103,0.3337542846833845,0.9385174054595542,0.8878202719963934,0.7424318869828456,0.5323962717979555,0.3729906542056074,0.3521467003403974
0.5891439909297053,0.5714916151809356,0.5392523364485978,0.4208436724565757,0.6208399366085579,0.5607071982680858,0.9798397195091412,0.9616049289954166,0.8816851664984863,0.7414311485267588,0.5957009345794392,0.5682442077522785
0.8102324263038548,0.801963812886143,0.7864485981308408,0.1945409429280397,0.8252773375594293,0.7968609056467616,0.9871024292511896,0.9943647156059808,0.9891523713420786,0.9365604329524956,0.8392523364485981,0.7987262545294828
0.973497732426304,0.971315092674316,0.9654205607476636,0.0277915632754342,0.9774167987321712,0.96987191051777,0.8888054094665665,0.919603275978661,0.9631054490413722,0.9961665664461816,0.9918691588785048,0.971011309981333
0.9784580498866212,0.9778243601059136,0.9771028037383176,0.0219602977667493,0.9793977812995246,0.9774490348186902,0.6785624843476082,0.7348410849800886,0.7725151362260342,0.8737221888153938,0.9533644859813084,0.9819918743823434
0.8458049886621316,0.8433362753751105,0.8443925233644857,0.1557071960297767,0.8502377179080823,0.8417824282879306,0.4139744552967693,0.4756180028552108,0.5059914228052472,0.6637853277209862,0.7825233644859813,0.8456132645217964
0.6619897959183674,0.6492718446601943,0.6280373831775699,0.3452853598014888,0.6850237717908082,0.6413494497564496,0.1720510894064612,0.2011420843038545,0.2364404641775983,0.4260372820204449,0.5704672897196261,0.6486219391676732
0.4645691609977324,0.4384377758164166,0.3864485981308408,0.5501240694789082,0.5114896988906498,0.4225148836370197,0.0165289256198346,0.0255466225862198,0.042255297679112,0.2149729404690318,0.3306542056074766,0.4382343252443175
0.2784863945578231,0.2367608120035304,0.1457943925233643,0.7450372208436725,0.3534072900158478,0.2110770340970593,0.0493363385925368,0.02952889022466,0.0130549949545913,0.0590799759470835,0.1569158878504672,0.2400351378060832
0.163407029478458,0.1187113857016769,0.0252336448598131,0.861786600496278,0.2436608557844691,0.0912863070539418,0.2170047583270722,0.1628972875497783,0.0903758829465186,0.0063138905592302,0.0610280373831775,0.1252882398155265
0.0992063492063492,0.0627758164165931,0.0,0.9213399503722084,0.1644215530903328,0.0407721450478079,0.3946907087402955,0.3302276654895184,0.1970862764883955,0.0215724594107035,0.0246728971962616,0.0657735807620511
0.0734126984126984,0.0508605472197704,0.0341121495327103,0.9393300248138958,0.1141045958795562,0.0375248060616994,0.5464562985224142,0.4783980764895935,0.2860746720484359,0.0722339146121467,0.0249532710280373,0.051608652684748
0.104875283446712,0.0743601059135039,0.0303738317757009,0.9124069478908188,0.1596671949286845,0.0559263936496481,0.6436263461056849,0.5853933428507024,0.3434031281533803,0.1229705351773902,0.0503738317757009,0.0736795871307785
0.1537698412698412,0.1092233009708737,0.017289719626168,0.8713399503722085,0.2333597464342313,0.0819051055385169,0.7068620085149011,0.6500864076940416,0.3785948536831483,0.1580727600721587,0.084018691588785,0.1114527286702536
0.1648242630385487,0.1224624889673433,0.036448598130841,0.8590570719602978,0.2408874801901743,0.0965181309760057,0.7281492612071124,0.6769103614095724,0.3920913218970736,0.1734064942874323,0.1025233644859813,0.1275941583397386
0.1598639455782312,0.1219108561341571,0.0504672897196259,0.8615384615384617,0.2282091917591124,0.0986830236334114,0.7241422489356374,0.6770606356600796,0.391523713420787,0.1724293445580276,0.1017757009345794,0.1248490172394861
0.1622732426303854,0.1240070609002648,0.0509345794392522,0.8593052109181142,0.2309825673534072,0.1004871008479163,0.7221387427998998,0.6765346757833044,0.391523713420787,0.1710012026458208,0.1010280373831775,0.1238607664433951
0.1679421768707482,0.1307369814651368,0.061214953271028,0.8531017369727047,0.2345483359746434,0.1080642251488363,0.72702228900576,0.6807423547975054,0.3954969727547931,0.1749098015634395,0.1058878504672897,0.1286922147798396
0.1716269841269841,0.1331641659311562,0.0593457943925235,0.85,0.2408874801901743,0.1096878946418906,0.7327823691460055,0.6846494853106919,0.3980827447023208,0.1791942273000601,0.1110280373831775,0.1346217195563852
0.1663832199546485,0.1278684907325684,0.0542056074766354,0.8553349875930522,0.2357369255150554,0.1042756629983762,0.7310293012772351,0.6826959200540987,0.3971997981836528,0.177916416115454,0.1091588785046728,0.1330844405402437
0.1595804988662131,0.122352162400706,0.0532710280373833,0.8614143920595534,0.226228209191759,0.0997654699621143,0.724517906336088,0.6772860470358404,0.3929112008072654,0.1721286831028262,0.1033644859813084,0.1261666849676073
0.1608560090702948,0.1244483671668137,0.0579439252336448,0.8596774193548387,0.226228209191759,0.102291178062421,0.7228900576008014,0.6766098129085582,0.3919021190716447,0.1713770294648226,0.1014953271028037,0.1242999890194356
0.1680839002267573,0.130406001765225,0.0593457943925235,0.8531017369727047,0.2357369255150554,0.1075230019844849,0.7272727272727273,0.6801412577954767,0.3945509586276488,0.1749098015634395,0.1051401869158878,0.1299000768639508
0.1702097505668934,0.1331641659311562,0.064018691588785,0.8507444168734493,0.2365293185419968,0.110589933249143,0.7329075882794891,0.6841986625591704,0.397893541876892,0.1787432351172579,0.1103738317757009,0.1351707477764357
0.1649659863945578,0.1277581641659312,0.0588785046728973,0.8559553349875932,0.231378763866878,0.1051777016056287,0.7312797395442023,0.6829964685551131,0.3967583249243188,0.1773902585688515,0.1085981308411214,0.1330844405402437
0.1595804988662131,0.1218005295675198,0.0504672897196259,0.8616625310173698,0.2274167987321711,0.0986830236334114,0.7248935637365389,0.6780374182883763,0.3929112008072654,0.1731058328322309,0.1027102803738317,0.1262764906116174
0.1609977324263038,0.124117387466902,0.0560747663551403,0.859801488833747,0.2270206022187004,0.1017499548980696,0.722389181066867,0.6765346757833044,0.3912083753784056,0.1714521948286229,0.1008411214953271,0.1232019325793346
0.1683673469387755,0.1301853486319505,0.0574766355140186,0.853225806451613,0.2369255150554675,0.1068013710986829,0.7266466316053093,0.6803666691712374,0.3946140262361251,0.1750601322910402,0.1053271028037383,0.1284726034918194
0.1700680272108843,0.1327228596646072,0.0626168224299063,0.8509925558312657,0.2369255150554675,0.1098683023633411,0.7312797395442023,0.6840483883086633,0.3982719475277497,0.1791190619362597,0.1099065420560747,0.1338530800483144
0.165391156462585,0.1275375110326566,0.0560747663551403,0.8559553349875932,0.2333597464342313,0.1044560707198267,0.7310293012772351,0.6824705086783379,0.3967583249243188,0.1774654239326518,0.1082242990654205,0.1322059953881629
0.1590136054421768,0.121469549867608,0.0514018691588784,0.8621588089330026,0.226228209191759,0.0986830236334114,0.7241422489356374,0.6774363212863475,0.392406659939455,0.1722038484666266,0.1020560747663551,0.1255078511035467
0.1609977324263038,0.1231244483671668,0.0518691588785046,0.8604218362282879,0.2290015847860538,0.1001262854050153,0.7216378662659654,0.6757833045307686,0.3912714429868819,0.171677690920024,0.101214953271028,0.123750960799385
0.1686507936507936,0.1306266548984996,0.058411214953271,0.8528535980148884,0.2369255150554675,0.1073425942630344,0.7267718507387929,0.6799909835449696,0.3944878910191725,0.1753607937462417,0.1051401869158878,0.1292412429998902
0.171343537414966,0.1329435127978817,0.0593457943925235,0.8502481389578164,0.2404912836767035,0.1095074869204401,0.7317806160781366,0.6841986625591704,0.397452068617558,0.1786680697534576,0.1097196261682243,0.1346217195563852
0.1658163265306122,0.1277581641659312,0.055607476635514,0.8555831265508685,0.2341521394611727,0.1046364784412772,0.7310293012772351,0.6825456458035914,0.3966321897073662,0.1773150932050511,0.108411214953271,0.1325354123201932
0.1600056689342403,0.1222418358340688,0.0518691588785046,0.8612903225806452,0.2274167987321711,0.0994046545192134,0.7255196594039569,0.6771357727853332,0.3922174571140262,0.1719031870114251,0.1027102803738317,0.1248490172394861
0.1618480725623582,0.1237864077669902,0.0518691588785046,0.8596774193548387,0.2301901743264658,0.1004871008479163,0.722389181066867,0.675332481779247,0.3909561049445005,0.170625375826819,0.1002803738317756,0.1230921269353244
0.169359410430839,0.130847308031774,0.0570093457943923,0.8523573200992557,0.2385103011093502,0.1073425942630344,0.7271475081392437,0.6799158464197159,0.3944878910191725,0.1750601322910402,0.105233644859813,0.1294608542879103
0.1724773242630385,0.1331641659311562,0.0570093457943923,0.8497518610421837,0.2428684627575277,0.1091466714775391,0.7326571500125219,0.6838229769329026,0.397893541876892,0.1788184004810583,0.1102803738317756,0.1348413308444054
0.1666666666666666,0.1275375110326566,0.0518691588785046,0.8553349875930522,0.2369255150554675,0.1035540321125743,0.7322814926120711,0.683372154181381,0.3973890010090817,0.178141912206855,0.1094392523364485,0.1335236631162841
0.1602891156462584,0.1218005295675198,0.0485981308411214,0.8614143920595534,0.2293977812995245,0.0983222081905106,0.725144002003506,0.678262829664137,0.3926589303733602,0.1726548406494287,0.1022429906542056,0.1260568793235972
0.1615646258503401,0.1242277140335393,0.0551401869158878,0.8595533498759306,0.2282091917591124,0.1015695471766191,0.7230152767342849,0.6760087159065293,0.391082240161453,0.1715273601924233,0.1005607476635514,0.1240803777314153
0.1689342403628118,0.1306266548984996,0.0574766355140186,0.852605459057072,0.2377179080824089,0.1071621865415839,0.7277736038066616,0.6796904350439552,0.3946140262361251,0.1752856283824413,0.1059813084112149,0.1299000768639508
0.1729024943310657,0.1336054721977052,0.0570093457943923,0.849255583126551,0.2432646592709983,0.1096878946418906,0.7334084648134234,0.6851754451874671,0.3995963673057517,0.1810733613950691,0.1113084112149532,0.135500164708466
0.1787131519274376,0.136694616063548,0.0514018691588784,0.8449131513647643,0.2539619651347068,0.1111311564134945,0.7374154770848986,0.6913366894582613,0.408678102926337,0.1907696933253156,0.1171028037383177,0.1403316130449105
0.1889172335600907,0.145189761694616,0.0532710280373833,0.8357320099255584,0.26743264659271,0.1183474652715136,0.7404207362885049,0.6969719738522803,0.42255297679112,0.2032471437161755,0.1255140186915887,0.1452728670253651
0.2070578231292517,0.1641659311562224,0.0738317757009346,0.8171215880893301,0.2840729001584786,0.1378314991881652,0.7474330077635862,0.7077917198887971,0.4402749747729566,0.2201593505712567,0.1390654205607476,0.1554847919183046
0.2284580498866213,0.1859002647837599,0.0953271028037383,0.7955334987593052,0.304675118858954,0.1598412412051235,0.7612071124467817,0.7243218874445864,0.4625378405650857,0.2423331328923632,0.1574766355140187,0.1740419457560118
0.2497165532879818,0.206090026478376,0.1107476635514019,0.7748138957816377,0.3280507131537242,0.1791448674003247,0.775732531930879,0.7418288376286722,0.4857467204843592,0.2665363800360794,0.17803738317757,0.1932579334577797
0.2627551020408163,0.2177846425419241,0.1172897196261683,0.7625310173697272,0.3435023771790808,0.1899693306873534,0.7843726521412471,0.7536253662934855,0.5041624621594349,0.2846512327119663,0.1915887850467289,0.2059953881629515
0.2732426303854875,0.2282656663724624,0.1271028037383176,0.7521091811414392,0.3538034865293185,0.2006133862529316,0.789381417480591,0.7618153129461266,0.5195509586276488,0.2982561635598316,0.2004672897196261,0.2126935324475677
0.2922335600907029,0.2488967343336275,0.1518691588785045,0.7321339950372209,0.3700475435816164,0.2222623128269889,0.7991485098923115,0.773762115861447,0.5390388496468214,0.3175736620565243,0.2142056074766355,0.2234544855605578
0.3161848072562358,0.2718446601941748,0.1696261682242988,0.7088089330024815,0.3958003169572108,0.2444524625653978,0.8129226145755071,0.7905176947929972,0.5606710393541876,0.3401984365604329,0.2345794392523364,0.2417920281102448
0.3343253968253968,0.2894969108561341,0.1850467289719624,0.6909429280397023,0.4148177496038034,0.2617716038246437,0.8271975957926371,0.8063716282215042,0.5829339051463168,0.3632742032471437,0.2535514018691588,0.2603491819479521
0.3455215419501134,0.2990953221535746,0.1887850467289718,0.6806451612903227,0.429080824088748,0.2702507667328161,0.8342098672677184,0.8156134946276955,0.5995206861755802,0.379585087191822,0.2659813084112149,0.2705611068408916
0.3538832199546485,0.308252427184466,0.200467289719626,0.6718362282878412,0.4358161648177495,0.2799927836911419,0.8367142499373904,0.8209482305207002,0.6127648839556004,0.3905592303066747,0.2721495327102803,0.2740748874492149
0.3696145124716553,0.3224845542806708,0.208411214953271,0.6569478908188586,0.4544374009508716,0.2931625473570268,0.8431004257450537,0.8309414681794275,0.6263874873864782,0.4046903187011425,0.2823364485981308,0.2824201163939826
0.3887471655328798,0.3409090909090909,0.2233644859813084,0.6382133995037221,0.4746434231378763,0.3112033195020747,0.8532431755572251,0.8443910135998196,0.6427850655903127,0.4224293445580276,0.2977570093457943,0.2963654331832656
0.4010770975056689,0.3524933804060018,0.2317757009345793,0.626302729528536,0.4885103011093503,0.3222081905105539,0.8648885549711995,0.8560372680141257,0.658678102926337,0.4367859290438965,0.3123364485981308,0.3105303612605687
0.4057539682539682,0.3587819947043248,0.2429906542056072,0.6207196029776675,0.4900950871632329,0.3296049070900234,0.8695216629100926,0.8612217296566232,0.6680751765893036,0.447083583884546,0.3182242990654205,0.3165696716811244
0.4094387755102041,0.3614298323036187,0.2420560747663552,0.6176178660049628,0.4956418383518224,0.3315893920259787,0.8687703481091911,0.8615974152828911,0.6720484359233098,0.4509921828021648,0.3199999999999999,0.3155814208850334
0.4138321995464852,0.3671668137687556,0.2518691588785048,0.612406947890819,0.4976228209191758,0.3382644777196463,0.8687703481091911,0.8647531745435418,0.6779767911200806,0.455426939266386,0.3235514018691588,0.3198638410014274
0.4209183673469387,0.3757722859664608,0.2649532710280372,0.6044665012406949,0.5019809825673534,0.3478260869565217,0.8727773603806661,0.8697873619355323,0.6854187689202824,0.4629434756464221,0.3302803738317756,0.3278796530141649
0.4246031746031746,0.3789717563989409,0.2663551401869159,0.6011166253101737,0.5063391442155308,0.3505322027782789,0.8786626596543952,0.8748966864527762,0.688635216952573,0.4679795550210462,0.3357009345794392,0.3343581860107609
0.4203514739229025,0.3736760812003531,0.257943925233645,0.6059553349875931,0.5039619651347068,0.3447591556918635,0.8774104683195592,0.8724171613194078,0.6867431886982844,0.4664010823812387,0.3333644859813083,0.3311738223344679
0.4125566893424036,0.3662842012356576,0.2523364485981306,0.6135235732009926,0.4956418383518224,0.3375428468338445,0.871274730778863,0.8667818769253889,0.6808148335015135,0.4599368610944077,0.3264485981308411,0.323707038541781
0.413407029478458,0.3640776699029126,0.2401869158878503,0.6143920595533499,0.5019809825673534,0.3333934692404834,0.8687703481091911,0.8625741979111878,0.6739404641775983,0.4526458208057726,0.3215887850467289,0.3181069506972658
0.4142573696145125,0.3647396293027361,0.2401869158878503,0.6136476426799008,0.5031695721077654,0.333934692404835,0.8676433759078387,0.860921181155609,0.6693365287588294,0.4488123872519542,0.318411214953271,0.3164598660371143
0.4050453514739229,0.3566857899382171,0.2364485981308412,0.6222084367245658,0.4920760697305864,0.3267183835468158,0.8678938141748058,0.8593433015252836,0.6636604439959637,0.442498496692724,0.3158878504672897,0.3159108378170637
0.3920068027210884,0.3427846425419241,0.2205607476635514,0.6357320099255583,0.4805863708399366,0.312105358109327,0.8600050087653394,0.8508528063716282,0.6508577194752774,0.4295700541190619,0.3057943925233644,0.3049302734160535
0.3741496598639456,0.3266769638128862,0.211214953271028,0.652605459057072,0.4591917591125197,0.2971315172289374,0.8474830954169796,0.8367270268239536,0.6334510595358224,0.412733012627781,0.2889719626168224,0.2895574832546392
0.3635204081632653,0.3157546337157988,0.1999999999999997,0.6633995037220844,0.4492868462757527,0.2861266462204582,0.8392186326070623,0.8247050867833795,0.6183779011099899,0.3966476247745039,0.2759813084112149,0.2780278906335785
0.354875283446712,0.3090247131509267,0.1999999999999997,0.6709677419354839,0.4370047543581616,0.2805340068554934,0.8340846481342349,0.8177924712600495,0.6055751765893036,0.3849969933854479,0.2686915887850467,0.2727572197210937
0.3418367346938776,0.2960061782877317,0.1883177570093456,0.6839950372208436,0.4239302694136291,0.2677250586325094,0.8313298271975957,0.8120820497407768,0.591574167507568,0.3714672279013831,0.2600934579439252,0.2664982980125178
0.3221371882086167,0.2763680494263019,0.1696261682242988,0.7035980148883375,0.4041204437400951,0.2480606169944072,0.820060105184072,0.7984822300698775,0.5712033299697276,0.351247745039086,0.2441121495327102,0.2521137586471944
0.2991780045351474,0.2547440423654016,0.1537383177570094,0.7258064516129032,0.3787638668779715,0.2273137290276023,0.804282494365139,0.7804493200090165,0.5490035317860746,0.327720986169573,0.2232710280373831,0.2317997145053255
0.2834467120181406,0.2385260370697264,0.1369158878504672,0.7419354838709677,0.3641045958795562,0.2107162186541583,0.7928875532181318,0.7663235404613419,0.5287588294651867,0.3071256764882742,0.2059813084112149,0.2170857582079718
0.2740929705215419,0.22716240070609,0.1196261682242991,0.7523573200992556,0.3585578446909667,0.1982680858740754,0.7858752817430502,0.7562551656773612,0.5114152371342078,0.2907396271797955,0.1950467289719626,0.2084111123311738
0.2606292517006802,0.2142541924095322,0.1093457943925232,0.7655086848635236,0.3438985736925515,0.1856395453725418,0.7806160781367393,0.7476895333984521,0.4947653884964681,0.275631389055923,0.1851401869158878,0.1991874382343252
0.2355442176870748,0.1902030008826125,0.0901869158878502,0.790074441687345,0.3169572107765451,0.1621865415839797,0.7695967943901828,0.7326621083477346,0.4735116044399595,0.2539837642814191,0.1686915887850467,0.1835950367848907
0.2124433106575963,0.168909973521624,0.0761682242990653,0.8120347394540944,0.2908082408874802,0.1421612845029766,0.7540696218382168,0.7144789240363663,0.4496720484359232,0.2295550210463018,0.1481308411214953,0.1638300208630723
0.1967120181405895,0.1539055604589584,0.0644859813084112,0.8274193548387097,0.2737717908082409,0.127548259065488,0.7414224893563737,0.7008791043654669,0.430247225025227,0.2098616957306073,0.1310280373831775,0.1485670363456681
0.1880668934240362,0.1450794351279788,0.0560747663551403,0.8362282878411911,0.2650554675118858,0.1187082807144145,0.7355371900826446,0.6927642948380794,0.4146064581231079,0.1948286229705351,0.1199999999999999,0.1418688920610519
0.1750283446712018,0.1357016769638129,0.0588785046728973,0.8471464019851117,0.2456418383518224,0.1116723795778458,0.733533683946907,0.6870538733188067,0.4023713420787083,0.183553818400481,0.1130841121495327,0.1375864719446579
0.1658163265306122,0.1286407766990291,0.0598130841121493,0.8550868486352359,0.2321711568938192,0.1060797402128811,0.7311545204107187,0.6825456458035914,0.3966321897073662,0.1773902585688515,0.1085981308411214,0.1330844405402437
0.1609977324263038,0.1231244483671668,0.0518691588785046,0.8602977667493797,0.2290015847860538,0.1001262854050153,0.7250187828700225,0.6771357727853332,0.3927850655903128,0.1726548406494287,0.1028971962616822,0.1259470736795871
0.161422902494331,0.1237864077669902,0.0532710280373833,0.859801488833747,0.2290015847860538,0.1008479162908171,0.7220135236664161,0.6757833045307686,0.3919021190716447,0.170625375826819,0.1006542056074766,0.1235313495113649
0.1682256235827664,0.1296337157987643,0.055607476635514,0.8534739454094293,0.2377179080824089,0.1060797402128811,0.7272727272727273,0.6797655721692087,0.3950554994954591,0.1749098015634395,0.105233644859813,0.1283627978478093
0.1707766439909297,0.1319505736981465,0.0570093457943923,0.8511166253101737,0.2404912836767035,0.1082446328702868,0.7325319308790382,0.6834472913066345,0.3980196770938446,0.1787432351172579,0.11,0.1330844405402437
0.1659580498866213,0.1274271844660194,0.0537383177570091,0.8557071960297767,0.2349445324881141,0.1039148475554753,0.7299023290758828,0.6817942745510557,0.3969475277497477,0.1766386049308478,0.1085046728971962,0.1311079389480619
0.1595804988662131,0.1219108561341571,0.0514018691588784,0.8616625310173698,0.2274167987321711,0.0990438390763124,0.7243926872026045,0.6772860470358404,0.392406659939455,0.1721286831028262,0.1021495327102803,0.1239705720874052
0.1621315192743764,0.1234554280670785,0.0500000000000001,0.8596774193548387,0.231378763866878,0.0999458776835648,0.7227648384673178,0.6763092644075437,0.3911453077699293,0.1707757065544197,0.1007476635514018,0.1228725156473042
0.1686507936507936,0.1298543689320388,0.0551401869158878,0.853225806451613,0.2381141045958795,0.1062601479343316,0.7271475081392437,0.6797655721692087,0.3942356205852674,0.1749849669272399,0.1057009345794392,0.1284726034918194
0.171485260770975,0.1325022065313327,0.0570093457943923,0.8504962779156328,0.2416798732171157,0.1087858560346383,0.7325319308790382,0.6835975655571417,0.3976412714429868,0.1788935658448587,0.1102803738317756,0.1338530800483144
0.1665249433106576,0.1277581641659312,0.0532710280373833,0.8553349875930522,0.2361331220285261,0.1040952552769259,0.7311545204107187,0.6824705086783379,0.3967583249243188,0.1773150932050511,0.1089719626168224,0.1325354123201932
0.1605725623582766,0.1218005295675198,0.0471962616822431,0.8612903225806452,0.2301901743264658,0.0979613927476096,0.724517906336088,0.6776617326621084,0.3922805247225024,0.1728051713770294,0.1028971962616822,0.1255078511035467
0.1611394557823129,0.123676081200353,0.0537383177570091,0.859925558312655,0.2282091917591124,0.1008479162908171,0.722389181066867,0.6762341272822902,0.3912083753784056,0.1709260372820204,0.1007476635514018,0.1238607664433951
0.1679421768707482,0.1300750220653133,0.058411214953271,0.8533498759305213,0.2361331220285261,0.1069817788201334,0.7262709742048584,0.6796904350439552,0.3944248234106962,0.1740829825616356,0.1049532710280373,0.1295706599319205
0.1704931972789115,0.1328331862312445,0.0616822429906542,0.8507444168734493,0.2381141045958795,0.1098683023633411,0.7310293012772351,0.6836727026823952,0.3975151362260343,0.1786680697534576,0.1104672897196261,0.1350609421324256
0.1655328798185941,0.1285304501323919,0.0598130841121493,0.8553349875930522,0.2321711568938192,0.1060797402128811,0.7300275482093664,0.68209482305207,0.3962537840565086,0.1770144317498496,0.1087850467289719,0.132315801032173
0.1588718820861678,0.1218005295675198,0.0532710280373833,0.8620347394540944,0.2254358161648177,0.0992242467977629,0.7235161532682193,0.6766849500338117,0.3922805247225024,0.1719783523752255,0.1027102803738317,0.1249588228834962
0.1605725623582766,0.1233451015004413,0.0542056074766354,0.8604218362282879,0.2274167987321711,0.1006675085693668,0.7220135236664161,0.6751822075287399,0.3913345105953582,0.1704750450992183,0.1005607476635514,0.123750960799385
0.167517006802721,0.130406001765225,0.0607476635514018,0.8534739454094293,0.2341521394611727,0.1077034097059354,0.7265214124718257,0.6792396122924336,0.3947401614530776,0.1746843054720384,0.1051401869158878,0.1289118260678599
0.1720521541950113,0.13261253309797,0.0551401869158878,0.8502481389578164,0.2428684627575277,0.1084250405917373,0.7322814926120711,0.6839732511834097,0.3978304742684157,0.1791190619362597,0.1104672897196261,0.1350609421324256
0.1666666666666666,0.1276478375992939,0.0523364485981308,0.8553349875930522,0.2365293185419968,0.1039148475554753,0.7309040821437515,0.6823202344278307,0.3966952573158425,0.1771647624774503,0.1081308411214953,0.1327550236082134
0.1607142857142857,0.1218005295675198,0.0476635514018689,0.8612903225806452,0.2301901743264658,0.0981418004690601,0.7238918106686701,0.676985498534826,0.3925958627648839,0.171677690920024,0.1021495327102803,0.1249588228834962
0.1615646258503401,0.123676081200353,0.0523364485981308,0.859801488833747,0.2293977812995245,0.1004871008479163,0.7220135236664161,0.6759335787812758,0.3916498486377396,0.1714521948286229,0.1008411214953271,0.1233117382233446
0.1685090702947845,0.1306266548984996,0.0588785046728973,0.8528535980148884,0.2365293185419968,0.1075230019844849,0.7271475081392437,0.6801412577954767,0.3947401614530776,0.1759621166566446,0.1062616822429906,0.1292412429998902
0.1712018140589569,0.1319505736981465,0.055607476635514,0.8508684863523573,0.2416798732171157,0.1080642251488363,0.7317806160781366,0.6839732511834097,0.3979566094853683,0.1787432351172579,0.1103738317757009,0.1346217195563852
0.1656746031746031,0.1272065313327448,0.0542056074766354,0.8559553349875932,0.2345483359746434,0.1037344398340248,0.7310293012772351,0.6827710571793524,0.3970736629667002,0.1777660853878532,0.1085981308411214,0.132315801032173
0.1600056689342403,0.1224624889673433,0.0523364485981308,0.861166253101737,0.2274167987321711,0.0995850622406638,0.7253944402704733,0.6778871440378691,0.393289606458123,0.1734816596512327,0.1034579439252336,0.1260568793235972
0.1621315192743764,0.1244483671668137,0.0537383177570091,0.8591811414392061,0.2297939778129952,0.1013891394551686,0.7227648384673178,0.6763844015327972,0.3918390514631684,0.1719783523752255,0.1015887850467289,0.1241901833754254
0.1689342403628118,0.1298543689320388,0.0542056074766354,0.8531017369727047,0.2393026941362915,0.1058993324914306,0.7265214124718257,0.6800661206702231,0.3946140262361251,0.1753607937462417,0.1057009345794392,0.1293510486439002
0.1719104308390022,0.1327228596646072,0.0560747663551403,0.8501240694789083,0.242472266244057,0.1087858560346383,0.7329075882794891,0.6838981140581561,0.3975782038345106,0.1791190619362597,0.1100934579439252,0.1349511364884155
0.1660997732426303,0.1276478375992939,0.0542056074766354,0.8555831265508685,0.2353407290015847,0.1040952552769259,0.7309040821437515,0.6823953715530843,0.3963799192734611,0.17708959711365,0.1085046728971962,0.1324256066761831
0.159438775510204,0.1222418358340688,0.0532710280373833,0.8615384615384617,0.226228209191759,0.0995850622406638,0.7247683446030553,0.6773611841610939,0.3925958627648839,0.1722038484666266,0.1025233644859813,0.1256176567475568
0.1611394557823129,0.1242277140335393,0.0560747663551403,0.8596774193548387,0.2274167987321711,0.1017499548980696,0.722389181066867,0.6756330302802614,0.3913345105953582,0.1710763680096212,0.1013084112149532,0.1232019325793346
0.1689342403628118,0.1306266548984996,0.0579439252336448,0.8527295285359803,0.2377179080824089,0.1073425942630344,0.7267718507387929,0.6799909835449696,0.3946140262361251,0.1752856283824413,0.1058878504672897,0.1290216317118699
0.1717687074829932,0.1328331862312445,0.0574766355140186,0.8501240694789083,0.2416798732171157,0.1089662637560886,0.7317806160781366,0.6841986625591704,0.397452068617558,0.1786680697534576,0.1097196261682243,0.134511913912375
0.1672335600907029,0.1284201235657546,0.0537383177570091,0.8547146401985113,0.2369255150554675,0.1046364784412772,0.7312797395442023,0.6826959200540987,0.3963799192734611,0.177916416115454,0.1089719626168224,0.1326452179642033
0.1604308390022675,0.1221315092674315,0.0495327102803739,0.861166253101737,0.2290015847860538,0.0986830236334114,0.724517906336088,0.6775865955368547,0.3927219979818365,0.1734064942874323,0.1033644859813084,0.1253980454595366
0.1621315192743764,0.1242277140335393,0.0528037383177571,0.8591811414392061,0.2301901743264658,0.1010283240122676,0.7213874279989982,0.6757081674055151,0.391523713420787,0.1715273601924233,0.1009345794392523,0.1232019325793346
0.1697845804988662,0.1302956751985878,0.0528037383177571,0.8524813895781639,0.2408874801901743,0.1060797402128811,0.7266466316053093,0.6799158464197159,0.3948032290615539,0.1753607937462417,0.105607476635514,0.1285824091358296
0.1719104308390022,0.1322815533980582,0.0542056074766354,0.8503722084367246,0.2432646592709983,0.1080642251488363,0.7324067117455547,0.6839732511834097,0.3975151362260343,0.1794948887552615,0.1105607476635514,0.1344021082683649
0.1672335600907029,0.1278684907325684,0.0514018691588784,0.8549627791563276,0.2377179080824089,0.1039148475554753,0.7312797395442023,0.6822450973025772,0.3963799192734611,0.1780667468430547,0.1089719626168224,0.132315801032173
0.1601473922902494,0.122352162400706,0.0514018691588784,0.861166253101737,0.2278129952456418,0.0994046545192134,0.725144002003506,0.6772860470358404,0.3929112008072654,0.1734064942874323,0.102803738317757,0.1255078511035467
0.1618480725623582,0.1242277140335393,0.0537383177570091,0.8594292803970224,0.2293977812995245,0.1012087317337181,0.7218883045329325,0.6763844015327972,0.3914606458123107,0.1721286831028262,0.1011214953271028,0.1239705720874052
0.1692176870748299,0.130406001765225,0.055607476635514,0.852605459057072,0.2389064976228209,0.1068013710986829,0.7271475081392437,0.6800661206702231,0.3950554994954591,0.1759621166566446,0.1057009345794392,0.1294608542879103
0.1709183673469388,0.1325022065313327,0.058411214953271,0.8507444168734493,0.2400950871632329,0.1089662637560886,0.7319058352116202,0.6838229769329026,0.3980827447023208,0.1794948887552615,0.1098130841121495,0.1336334687602943
0.1663832199546485,0.1278684907325684,0.0542056074766354,0.8553349875930522,0.2353407290015847,0.1044560707198267,0.7294014525419483,0.6823202344278307,0.3961907164480323,0.1776909200240529,0.108411214953271,0.1316569671681124
0.161281179138322,0.1224624889673433,0.0481308411214952,0.8606699751861043,0.2309825673534072,0.0986830236334114,0.7243926872026045,0.6772109099105867,0.3925327951564076,0.1731058328322309,0.1026168224299065,0.1255078511035467
0.1618480725623582,0.1238967343336275,0.0523364485981308,0.8595533498759306,0.2297939778129952,0.1006675085693668,0.7226396193338342,0.6760087159065293,0.391523713420787,0.1716025255562236,0.1005607476635514,0.1235313495113649
0.1678004535147392,0.1301853486319505,0.0593457943925235,0.8533498759305213,0.2353407290015847,0.1073425942630344,0.7273979464062108,0.6797655721692087,0.3946770938446014,0.175210463018641,0.105607476635514,0.1292412429998902
0.1706349206349206,0.1322815533980582,0.0588785046728973,0.8509925558312657,0.2396988906497623,0.1087858560346383,0.7327823691460055,0.683747839807649,0.3975782038345106,0.178968731208659,0.1100934579439252,0.1342923026243549
0.1663832199546485,0.1281994704324801,0.055607476635514,0.855210918114144,0.2349445324881141,0.1048168861627277,0.7315301778111696,0.6828461943046059,0.3965691220988899,0.1777660853878532,0.1085981308411214,0.1335236631162841
0.1600056689342403,0.1224624889673433,0.0523364485981308,0.861166253101737,0.2274167987321711,0.0995850622406638,0.7253944402704733,0.6781125554136298,0.392406659939455,0.1729555021046302,0.1030841121495327,0.125837268035577
0.1615646258503401,0.1246690203000882,0.0565420560747661,0.8593052109181142,0.2278129952456418,0.1021107703409705,0.7233909341347358,0.6769103614095724,0.3913345105953582,0.1714521948286229,0.1006542056074766,0.1239705720874052
0.1687925170068027,0.1307369814651368,0.0588785046728973,0.852605459057072,0.2369255150554675,0.1075230019844849,0.7273979464062108,0.6802915320459838,0.3946140262361251,0.1753607937462417,0.1057943925233644,0.1290216317118699
0.1720521541950113,0.1332744924977934,0.058411214953271,0.8498759305210919,0.2416798732171157,0.1095074869204401,0.7321562734785875,0.6844240739349312,0.3978304742684157,0.1795700541190619,0.1106542056074766,0.1348413308444054
0.1665249433106576,0.1279788172992056,0.0542056074766354,0.855210918114144,0.2357369255150554,0.1044560707198267,0.7310293012772351,0.6829213314298594,0.3965691220988899,0.177916416115454,0.1088785046728971,0.1325354123201932
0.1598639455782312,0.1227934686672551,0.0542056074766354,0.8610421836228288,0.226228209191759,0.1001262854050153,0.7252692211369897,0.6781876925388834,0.3927219979818365,0.172730006013229,0.1028971962616822,0.1253980454595366
0.1619897959183673,0.1235657546337157,0.0504672897196259,0.8596774193548387,0.2309825673534072,0.1001262854050153,0.7222639619333834,0.6765346757833044,0.3914606458123107,0.1713018641010222,0.1008411214953271,0.1233117382233446
0.169359410430839,0.1300750220653133,0.0532710280373833,0.8527295285359803,0.2400950871632329,0.1060797402128811,0.7275231655396944,0.6805169434217446,0.3942356205852674,0.1751352976548406,0.1055140186915887,0.1290216317118699
0.1719104308390022,0.1325022065313327,0.0560747663551403,0.8503722084367246,0.242472266244057,0.1086054483131878,0.7325319308790382,0.6846494853106919,0.3976412714429868,0.1792693926638605,0.1105607476635514,0.135500164708466
0.1659580498866213,0.1274271844660194,0.0537383177570091,0.8557071960297767,0.2353407290015847,0.1039148475554753,0.7311545204107187,0.6834472913066345,0.3969475277497477,0.1786680697534576,0.1101869158878504,0.1328648292522235
0.167375283446712,0.1274271844660194,0.0495327102803739,0.8550868486352359,0.2389064976228209,0.103012808948223,0.7315301778111696,0.6823953715530843,0.3967583249243188,0.1784425736620565,0.1095327102803738,0.1324256066761831
0.1857993197278911,0.144748455428067,0.0616822429906542,0.8373449131513648,0.2595087163232963,0.1196103193216668,0.7382920110192837,0.6887820271996392,0.4037588294651866,0.1867107636800962,0.1202803738317756,0.1413198638410014
0.2081916099773242,0.1695719329214475,0.0925233644859814,0.8135235732009927,0.2777337559429477,0.1457694389319862,0.7519408965689958,0.7028326696220603,0.4156786074672048,0.2015183403487673,0.1381308411214953,0.1600966289667288
0.2249149659863945,0.1896513680494263,0.1228971962616823,0.7950372208436726,0.288431061806656,0.1681399963918455,0.7685950413223139,0.7165827635434667,0.4287966700302724,0.2166265784726398,0.1566355140186915,0.1789831997364664
0.2358276643990929,0.2031112091791703,0.1439252336448598,0.7826302729528537,0.2943740095087163,0.1832942449936856,0.7779864763335838,0.7245472988203471,0.4385721493440968,0.2276007215874924,0.1711214953271028,0.1894147359174261
0.2444727891156462,0.2144748455428066,0.1635514018691586,0.7724565756823821,0.2983359746434231,0.19628360093812,0.7836213373403456,0.7277781952062513,0.442797679112008,0.2324113048707156,0.1770093457943925,0.194685406829911
0.2565192743764172,0.2299205648720212,0.1892523364485981,0.758560794044665,0.3042789223454833,0.2139635576402669,0.7896318557475582,0.7364941017356675,0.4492305751765892,0.2399278412507516,0.1863551401869158,0.2025914131986383
0.2745181405895691,0.2472418358340688,0.2032710280373829,0.7408188585607941,0.3232963549920761,0.2307414757351614,0.8017781116954671,0.7462619280186339,0.4579969727547931,0.2509019843656043,0.200841121495327,0.217305369495992
0.2868480725623582,0.2586054721977052,0.2107476635514018,0.7291563275434244,0.3375594294770205,0.2413855313007396,0.8120460806411219,0.7542264632955142,0.4653758829465186,0.2605983162958508,0.2115887850467289,0.2291643790490831
0.2837301587301587,0.2573918799646955,0.2154205607476633,0.7311414392059553,0.3312202852614896,0.2413855313007396,0.8140495867768595,0.7564054399278682,0.4678985872855701,0.2627781118460613,0.2148598130841121,0.232348742725376
0.2784863945578231,0.2522065313327449,0.2116822429906543,0.7363523573200993,0.3256735340729001,0.2363341151001262,0.808915602304032,0.75099556690961,0.463925327951564,0.2571407095610342,0.2089719626168224,0.2252113758647194
0.2779195011337869,0.2503309796999118,0.2051401869158879,0.7377171215880893,0.3276545166402536,0.2336279992783691,0.8041572752316554,0.745886242392366,0.4593213925327951,0.2520294648226097,0.2021495327102803,0.217305369495992
0.2757936507936507,0.2476831421006178,0.2009345794392522,0.7400744416873449,0.3260697305863708,0.2307414757351614,0.803030303030303,0.7464873393943948,0.4585645812310797,0.2517288033674082,0.2005607476635513,0.2176347864280223
0.2678571428571428,0.2396293027360989,0.1929906542056075,0.748014888337469,0.3185419968304279,0.2226231282698899,0.8012772351615326,0.7449094597640694,0.4568617558022199,0.2489476849067949,0.1974766355140186,0.21510925661579
0.2535430839002268,0.2228596646072374,0.169158878504673,0.763771712158809,0.3086370839936608,0.2042215406819412,0.7916353618832958,0.7346156736043279,0.4487260343087789,0.2396271797955502,0.1853271028037383,0.2046777204348303
0.231859410430839,0.2014563106796116,0.15,0.7853598014888339,0.2864500792393026,0.1829334295507848,0.7743551214625594,0.7208655796829213,0.4369954591321897,0.2255712567648827,0.1681308411214953,0.1863401778851433
0.2175453514739229,0.1853486319505737,0.1289719626168225,0.800620347394541,0.2753565768621236,0.1657946960129893,0.7628349611820685,0.7101209707716583,0.4250126135216952,0.211665664461816,0.1502803738317757,0.169869331283628
0.2089002267573696,0.1733230361871138,0.1065420560747662,0.8111662531017371,0.2725832012678288,0.151722893739852,0.7545704983721513,0.7046359606281464,0.4178859737638748,0.203547805171377,0.1397196261682242,0.1617437136268804
0.1979875283446712,0.1583186231244483,0.0789719626168223,0.8243176178660051,0.2694136291600634,0.1340429370377051,0.7481843225644877,0.6990758133593807,0.4123990918264379,0.1960312687913409,0.1310280373831775,0.1548259580542439
0.1758786848072562,0.1361429832303618,0.0579439252336448,0.8465260545905707,0.2472266244057052,0.1118527872992963,0.7390433258201853,0.688857164324893,0.4026236125126134,0.1845309681298857,0.1174766355140186,0.1413198638410014
0.1607142857142857,0.1227934686672551,0.0514018691588784,0.8606699751861043,0.2290015847860538,0.0995850622406638,0.7260205359378912,0.6781876925388834,0.3931634712411704,0.1734816596512327,0.1035514018691588,0.1259470736795871
0.161422902494331,0.124117387466902,0.0542056074766354,0.8596774193548387,0.2286053882725832,0.1013891394551686,0.722389181066867,0.676083853031783,0.3912083753784056,0.1710763680096212,0.1006542056074766,0.1232019325793346
0.1669501133786848,0.1298543689320388,0.0607476635514018,0.8539702233250621,0.233755942947702,0.1071621865415839,0.72702228900576,0.6797655721692087,0.3937941473259334,0.174383644016837,0.1046728971962616,0.1283627978478093
0.1712018140589569,0.13261253309797,0.0588785046728973,0.8506203473945411,0.2404912836767035,0.1091466714775391,0.7319058352116202,0.6839732511834097,0.3978304742684157,0.1786680697534576,0.1091588785046728,0.1339628856923246
0.1669501133786848,0.1283097969991174,0.0542056074766354,0.8548387096774195,0.2365293185419968,0.1046364784412772,0.7306536438767843,0.6823953715530843,0.3966952573158425,0.1776157546602525,0.1083177570093457,0.1331942461842538
0.1602891156462584,0.1227934686672551,0.0528037383177571,0.8609181141439206,0.2274167987321711,0.0999458776835648,0.7247683446030553,0.6778120069126156,0.392406659939455,0.172504509921828,0.1023364485981308,0.1255078511035467
0.1609977324263038,0.1238967343336275,0.0551401869158878,0.859925558312655,0.2278129952456418,0.1012087317337181,0.7226396193338342,0.6765346757833044,0.3912714429868819,0.1710012026458208,0.1004672897196261,0.1238607664433951
0.1685090702947845,0.1298543689320388,0.055607476635514,0.853225806451613,0.2381141045958795,0.1062601479343316,0.7273979464062108,0.6801412577954767,0.3946140262361251,0.1751352976548406,0.105607476635514,0.1296804655759306
0.1721938775510204,0.1325022065313327,0.0546728971962616,0.8502481389578164,0.2432646592709983,0.1082446328702868,0.7330328074129727,0.6841235254339169,0.3980827447023208,0.178968731208659,0.1105607476635514,0.1350609421324256
0.1665249433106576,0.1275375110326566,0.0523364485981308,0.8554590570719603,0.2365293185419968,0.1037344398340248,0.7316553969446532,0.6826959200540987,0.3968844601412714,0.1774654239326518,0.1079439252336448,0.1328648292522235
0.1595804988662131,0.1220211827007943,0.0518691588785046,0.8615384615384617,0.2270206022187004,0.0992242467977629,0.7255196594039569,0.6778120069126156,0.3928481331987891,0.1722790138304269,0.1019626168224299,0.1262764906116174
0.1607142857142857,0.1240070609002648,0.0565420560747661,0.8600496277915635,0.2266244057052298,0.1015695471766191,0.7230152767342849,0.6761589901570365,0.3915867810292633,0.1703998797354179,0.1001869158878504,0.1227627100032941
0.1680839002267573,0.129523389232127,0.055607476635514,0.8537220843672457,0.2373217115689381,0.1058993324914306,0.7271475081392437,0.6798407092944624,0.3943617558022199,0.1747594708358388,0.1050467289719626,0.1291314373558801
0.1709183673469388,0.131288614298323,0.0537383177570091,0.8514888337468983,0.2420760697305863,0.1071621865415839,0.7322814926120711,0.6838981140581561,0.3980196770938446,0.1791942273000601,0.1106542056074766,0.1351707477764357
0.1663832199546485,0.1273168578993821,0.0514018691588784,0.8557071960297767,0.2365293185419968,0.1033736243911238,0.7317806160781366,0.6834472913066345,0.3967583249243188,0.1782922429344558,0.1089719626168224,0.1335236631162841
0.1602891156462584,0.1221315092674315,0.0500000000000001,0.861166253101737,0.2290015847860538,0.0988634313548619,0.7248935637365389,0.6777368697873619,0.3927219979818365,0.1731809981960312,0.102429906542056,0.1257274623915669
0.161422902494331,0.123234774933804,0.0509345794392522,0.8601736972704715,0.2297939778129952,0.0999458776835648,0.7228900576008014,0.6763844015327972,0.3915867810292633,0.1715273601924233,0.1010280373831775,0.1240803777314153
0.1699263038548752,0.1299646954986761,0.0509345794392522,0.852605459057072,0.2420760697305863,0.1053581093270792,0.7280240420736288,0.6805169434217446,0.3948032290615539,0.1751352976548406,0.1055140186915887,0.1295706599319205
0.1706349206349206,0.1302956751985878,0.0504672897196259,0.8521091811414393,0.2432646592709983,0.1055385170485296,0.7317806160781366,0.6840483883086633,0.3966952573158425,0.178141912206855,0.1089719626168224,0.1336334687602943
0.1543367346938775,0.1128640776699028,0.0303738317757009,0.8691066997518611,0.2286053882725832,0.0874977449034819,0.729526671675432,0.6805169434217446,0.3886856710393541,0.1730306674684305,0.0962616822429906,0.1184802898869002
0.102891156462585,0.0729258605472197,0.0313084112149533,0.9140198511166254,0.1564976228209191,0.0550243550423957,0.71274730778863,0.6586520399729505,0.3651614530776992,0.1449939867708959,0.0600934579439252,0.0756560887229603
0.0382653061224489,0.0271403353927625,0.0500000000000001,0.9679900744416874,0.0582408874801901,0.0211077034097059,0.702854996243426,0.6374633706514389,0.3442230070635721,0.1095159350571256,0.0222429906542056,0.0271219940704952
0.0103458049886621,0.0063989408649602,0.0542056074766354,0.991935483870968,0.01743264659271,0.0050514162006134,0.7361632857500625,0.6518896987001277,0.366864278506559,0.1128232110643415,0.0044859813084112,0.0052706709124849
0.0639172335600907,0.0514121800529567,0.0682242990654206,0.9431761786600498,0.0863708399366085,0.044560707198268,0.8132982719759579,0.7177849575475242,0.4579339051463168,0.1878382441371016,0.0503738317757009,0.0524870978368288
0.1901927437641723,0.1694616063548102,0.1518691588785045,0.8215880893300248,0.2274167987321711,0.1571351253833664,0.8847983971950913,0.8020888120820497,0.6010973763874874,0.3421527360192423,0.1769158878504672,0.174261557044032
0.3737244897959184,0.3477493380406002,0.3018691588785046,0.6409429280397023,0.4203645007923929,0.3319502074688796,0.9366391184573002,0.887144037869111,0.74167507568113,0.5305923030667469,0.3705607476635513,0.3509388382562863
0.5890022675736961,0.5689541041482788,0.5289719626168224,0.4223325062034739,0.6251980982567353,0.5567382283961754,0.980465815176559,0.961905477496431,0.8812436932391522,0.739777510523151,0.5935514018691589,0.5675853738882178
0.8099489795918366,0.8000882612533099,0.7789719626168223,0.1956575682382134,0.8280507131537241,0.7939743821035539,0.9889807162534434,0.9957923209857992,0.9889631685166498,0.93543295249549,0.8377570093457942,0.7985066432414626
0.9733560090702948,0.9706531332744928,0.9630841121495328,0.0281637717121587,0.9782091917591124,0.9687894641890674,0.8899323816679188,0.9202043729806896,0.9631054490413722,0.995640408899579,0.9903738317757008,0.9703524761172724
0.9801587301587302,0.9779346866725508,0.9714953271028036,0.021091811414392,0.9841521394611727,0.9763665884899873,0.6798146756824442,0.736418964610414,0.7733350151362259,0.8744738424533975,0.9540186915887848,0.982650708246404
0.8479308390022675,0.8427846425419241,0.8350467289719626,0.1550868486352356,0.8573692551505546,0.8396175356305249,0.4159779614325068,0.4781726651138328,0.5072527749747728,0.6650631389055923,0.7835514018691588,0.8474799604699681
0.6629818594104309,0.6487202118270081,0.6228971962616822,0.3451612903225806,0.6885895404120443,0.6399061879848457,0.1740545955421988,0.2028702381846871,0.2372603430877901,0.4273150932050511,0.5708411214953271,0.6501592181838146
0.4666950113378685,0.4397616946160635,0.3850467289719625,0.5485111662531018,0.5150554675118858,0.4232365145228215,0.0172802404207363,0.0259223082124877,0.0426337033299697,0.2158749248346362,0.3304672897196261,0.4391127703963983
0.2799036281179138,0.2380847308031774,0.1467289719626168,0.7436724565756825,0.3549920760697306,0.2123398881472127,0.0494615577260204,0.0287775189721241,0.012991927346115,0.0603577871316897,0.156822429906542,0.2417920281102448
0.1638321995464852,0.1199249779346867,0.0289719626168222,0.8609181141439206,0.2428684627575277,0.0929099765469961,0.2161282243926872,0.1622210534224961,0.0899974772956609,0.0062387251954299,0.0609345794392523,0.126935324475678
0.0983560090702947,0.0637687555163282,0.0070093457943926,0.921091811414392,0.1604595879556259,0.0429370377052136,0.3941898322063611,0.3292508828612217,0.1970232088799192,0.0206704750450992,0.0255140186915888,0.0674206654222027
0.0719954648526077,0.0515225066195939,0.0425233644859812,0.9395781637717122,0.1085578446909666,0.0396896987191051,0.5469571750563486,0.4779472537380719,0.2860746720484359,0.0717077570655441,0.0247663551401869,0.0519380696167783
0.1034580498866213,0.0739187996469549,0.0336448598130841,0.913151364764268,0.1564976228209191,0.0562872090925491,0.6433759078387177,0.5850176572244346,0.3431508577194753,0.1227450390859891,0.0497196261682243,0.0736795871307785
0.1523526077097505,0.1092233009708737,0.0214953271028037,0.8719602977667493,0.2297939778129952,0.0828071441457694,0.7067367893814175,0.650011270568788,0.3786579212916246,0.157922429344558,0.0834579439252336,0.1117821456022839
0.1648242630385487,0.1229037952338922,0.0383177570093456,0.8588089330024815,0.2400950871632329,0.0972397618618076,0.7273979464062108,0.6762341272822902,0.3925958627648839,0.1729555021046302,0.1018691588785046,0.1275941583397386
0.1600056689342403,0.1218005295675198,0.0495327102803739,0.8615384615384617,0.2286053882725832,0.0985026159119609,0.7246431254695717,0.676985498534826,0.3926589303733602,0.172504509921828,0.1017757009345794,0.1247392115954759
0.1617063492063492,0.1233451015004413,0.0504672897196259,0.859925558312655,0.2305863708399366,0.0999458776835648,0.7220135236664161,0.6758584416560222,0.3918390514631684,0.1715273601924233,0.1005607476635514,0.1225430987152739
0.169359410430839,0.1300750220653133,0.0537383177570091,0.8527295285359803,0.2400950871632329,0.1060797402128811,0.7268970698722764,0.6796152979187017,0.3950554994954591,0.1749849669272399,0.1049532710280373,0.1282529922037993
0.1721938775510204,0.1325022065313327,0.0546728971962616,0.8502481389578164,0.2436608557844691,0.1082446328702868,0.7330328074129727,0.6834472913066345,0.3981458123107971,0.1785929043896572,0.1094392523364485,0.1344021082683649
0.1660997732426303,0.1273168578993821,0.0532710280373833,0.8557071960297767,0.2353407290015847,0.1037344398340248,0.730778863010268,0.6823953715530843,0.3969475277497477,0.1776157546602525,0.1080373831775701,0.1326452179642033
0.159438775510204,0.1220211827007943,0.0523364485981308,0.8616625310173698,0.2266244057052298,0.0992242467977629,0.7252692211369897,0.6774363212863475,0.392406659939455,0.1730306674684305,0.1023364485981308,0.1256176567475568
0.1611394557823129,0.1235657546337157,0.0532710280373833,0.8600496277915635,0.2286053882725832,0.1006675085693668,0.7232657150012521,0.6760087159065293,0.3913345105953582,0.1716025255562236,0.1008411214953271,0.1241901833754254
0.167517006802721,0.1293027360988526,0.0565420560747661,0.8540942928039702,0.2361331220285261,0.1060797402128811,0.7267718507387929,0.6799158464197159,0.3946770938446014,0.1746091401082381,0.1046728971962616,0.1290216317118699
0.1712018140589569,0.1322815533980582,0.0570093457943923,0.8507444168734493,0.2408874801901743,0.1086054483131878,0.731404958677686,0.6835224284318882,0.3975782038345106,0.1782922429344558,0.108411214953271,0.1346217195563852
0.1652494331065759,0.1275375110326566,0.0570093457943923,0.8560794044665013,0.23256735340729,0.1046364784412772,0.7310293012772351,0.68209482305207,0.3965060544904136,0.1773150932050511,0.1078504672897196,0.1331942461842538
0.1587301587301587,0.1222418358340688,0.055607476635514,0.861786600496278,0.2242472266244057,0.1001262854050153,0.7233909341347358,0.6773611841610939,0.3921543895055499,0.1728051713770294,0.1022429906542056,0.1263862962556275
0.1604308390022675,0.1237864077669902,0.0565420560747661,0.8602977667493797,0.226228209191759,0.1013891394551686,0.7213874279989982,0.6754827560297544,0.3905776992936428,0.1711515333734215,0.0999065420560747,0.1233117382233446
