Lead I,Lead II,Lead III,aVR,aVL,aVF,V1,V2,V3,V4,V5,V6
0.1965965069413345,0.1739270472662855,0.4391132224861442,0.8585403198366792,0.3035371830385681,0.2477686137159643,0.8805115535532626,0.8827277514481306,0.8514069264069264,0.7347813176091291,0.1373550480228711,0.1232797140303842
0.183982683982684,0.1574200821322167,0.4334125098970705,0.874447090847227,0.2965054336245472,0.2342108236357473,0.8821682894928063,0.8844918378093733,0.8537518037518037,0.7341874178085098,0.1316693970640198,0.1159517426273458
0.1862964621585311,0.1596746920041871,0.4327790973871734,0.8719802653963934,0.2983166418069465,0.235566602643769,0.886440924284261,0.8909162717219589,0.8634559884559885,0.7424595936028509,0.1332755131540907,0.1163538873994638
0.1908493805045529,0.1663579998389564,0.4364212193190815,0.8658557332425997,0.3003409333049222,0.241441645011863,0.8942304897543961,0.8997630331753556,0.8753968253968253,0.7525983116277097,0.1351064854967717,0.1185880250223413
0.1889087923570682,0.1736854819228601,0.454948535233571,0.8631337189520245,0.2927764756019603,0.2533047113320528,0.8995785496294143,0.9071090047393364,0.8856421356421357,0.7611674373223605,0.1336931033375092,0.1171581769436997
0.1770413494551425,0.1715919156131733,0.4760095011876485,0.8709595100374278,0.2772213935648839,0.2592927352841486,0.901002761226566,0.908504476040021,0.8882395382395383,0.7599796377211218,0.1254376666345443,0.1081769436997319
0.1637557844454396,0.1652306949029712,0.491686460807601,0.8818475671997278,0.2625186447901129,0.2604225511241668,0.9019037930533352,0.9103212216956292,0.8904040404040403,0.7562041318457557,0.1171822299315794,0.1000893655049151
0.1686072548141513,0.1745712215154199,0.4999208234362629,0.8741919020074855,0.2631578947368421,0.2699130041803186,0.9078040982415346,0.9184307530279092,0.900974025974026,0.7621855512662793,0.1153833799106999,0.0988382484361036
0.1765188834154351,0.1853611401884209,0.5041963578780682,0.8639843484178292,0.2673130193905817,0.279064512484465,0.916087777939253,0.9284623486045288,0.9157287157287156,0.7760149323378442,0.116764639748161,0.1003574620196604
0.1728616211374831,0.1867300104678315,0.5146476642913699,0.8653453555631168,0.2612401448966545,0.2836967574285391,0.9229763115826188,0.9379410215903108,0.9295093795093796,0.7861960717770332,0.1175034531495936,0.0998212689901697
0.1582325720256754,0.1765842660439648,0.5257323832145685,0.8790404899625723,0.2470701044108246,0.2805332730764885,0.9279174538584508,0.9427593470247498,0.9364357864357864,0.788189878250541,0.1113680896855224,0.0929401251117068
0.1472607851918196,0.1675658265560834,0.5312747426761679,0.8900986730180334,0.2373748135520988,0.276126991300418,0.931143729109141,0.9464454976303316,0.942135642135642,0.7894200992661097,0.1033053869133661,0.0851206434316353
0.1443499029705926,0.1703840888960463,0.5429928741092637,0.8902687989111944,0.2313019390581717,0.2823409784205175,0.9370730998401396,0.9527909426013692,0.9504329004329004,0.7937470835277649,0.0973627573801034,0.080071492403932
0.1455441110613524,0.1872131411546823,0.5735550277117974,0.8806566859476013,0.2219262731728105,0.3050502768048808,0.9473623019909896,0.9632964718272776,0.9652236652236652,0.8062189793407714,0.0967524332658764,0.0793565683646112
0.1438274369308852,0.1992914083259521,0.6011084718923199,0.8752977203130318,0.2113786490517792,0.3233532934131736,0.9541055079203604,0.9715376513954712,0.9769119769119768,0.8122428201756247,0.0934438341203302,0.0758713136729222
0.1280788177339901,0.1887430549963765,0.6136183689627871,0.889843484178292,0.1960366503302791,0.3204157722291266,0.9562272925446884,0.9738283307003686,0.978102453102453,0.8074916217706699,0.0820082875590247,0.0631814119749776
0.1117330944917151,0.1798856590707786,0.630720506730008,0.9037938074174888,0.1785638184530151,0.3203027906451248,0.9577387007702368,0.975144813059505,0.9797619047619048,0.8035888516523141,0.0709260865375349,0.0512957998212689
0.1142707866845798,0.1872131411546823,0.6399049881235156,0.8984348417829194,0.1772853185595568,0.3287764094452604,0.9616044179625054,0.9794628751974724,0.9866883116883116,0.8066007720697409,0.065882882014712,0.0484807864164432
0.1151664427526496,0.1965536677671309,0.6563737133808394,0.8930758761483498,0.1723844023012998,0.3410914021014574,0.9673593954367098,0.9852817272248552,0.9945526695526696,0.8133033555338736,0.0624779159037615,0.0486595174262734
0.1085236602477981,0.1960705370802802,0.6695170229612035,0.8970738346376319,0.163221819731515,0.3454976838775279,0.9718064234849586,0.988493944181148,0.9987012987012986,0.8140245195774827,0.0578201792425556,0.0448614834673815
0.0991192715330646,0.1935743618648844,0.684560570071259,0.9037087444709084,0.1513956957170253,0.3491130945655857,0.9708763261153904,0.9871774618220116,0.9966450216450216,0.8068977219700506,0.049436253252385,0.0363270777479892
0.086505448574414,0.1876157500603913,0.6994457640538401,0.914086423953726,0.1374387385467717,0.3502429104056039,0.968086034006685,0.985202738283307,0.9956349206349204,0.8045221227675732,0.0442645594423564,0.0293565683646112
0.0858337065233617,0.1910781866494887,0.7078384798099763,0.9126403538618576,0.1341359471553377,0.3556660264376907,0.9696265077750328,0.9847024749868352,0.9964285714285712,0.805540236711492,0.0421444862034627,0.0281948168007149
0.1009852216748768,0.2080682824704083,0.7091053048297705,0.8950323239197007,0.1445770296185808,0.3679810190938877,0.9725330620549338,0.9874934175882042,1.0,0.8090612141008782,0.0461597764286402,0.0354781054512958
0.1005373936408419,0.2107255012480876,0.7151227236737926,0.893841442667574,0.1422331131472405,0.3720483561179527,0.9735503560528992,0.9869141653501844,0.9992424242424244,0.8076188860136598,0.0468664675082715,0.0369526362823949
0.0921779370055232,0.2034785409453257,0.7187648456057009,0.902517863218782,0.1349882804176433,0.3682069822618913,0.9670106089231216,0.9794365455502896,0.9917748917748916,0.8020192593221058,0.0436542353281295,0.033065236818588
0.090162710852366,0.2021901924470569,0.7205067300079178,0.904304185096972,0.1329639889196676,0.3679810190938877,0.9590757157389914,0.9705371248025276,0.9811688311688312,0.7922623340262165,0.0396068227811506,0.0292672028596961
0.0915061949544708,0.2104839359046622,0.7341250989707048,0.8992004083021437,0.1293415725548689,0.3786012879900575,0.9537567214067724,0.9655081621906266,0.976118326118326,0.7914563271539474,0.0414056728020301,0.0320822162645218
0.1049410359755187,0.2266688139141637,0.7372921615201902,0.882953385505274,0.1378649051779245,0.3911422438142582,0.950414183984886,0.9611901000526591,0.9724747474747476,0.7924320196835363,0.0482477273457325,0.0422698838248436
0.1106135244066278,0.2288429020049923,0.729532858273951,0.8785301122830896,0.1445770296185808,0.3898994463902383,0.9466356634210144,0.9540021063717746,0.9644660894660896,0.7920078055402368,0.0579165462079599,0.0543342269883824
0.1172563069114793,0.2239310733553426,0.7057798891528109,0.877339231030963,0.157255486895376,0.3780363800700485,0.9337014968754542,0.9403633491311216,0.9466450216450216,0.7822084588300176,0.0628312614435771,0.0582216264521894
0.1212121212121212,0.219743940735969,0.6891528107680127,0.877339231030963,0.1656722778606435,0.3691108349339057,0.918703676791164,0.9241179568193786,0.9258658008658008,0.7677003351291732,0.0681635668626128,0.0629133154602323
0.1287505597850425,0.226990901038731,0.6874109263657958,0.8691731881592378,0.1716386106967824,0.373630098293978,0.9077169016131376,0.911690363349131,0.9097402597402596,0.7639248292538074,0.0804342937907552,0.0765415549597855
0.1502463054187192,0.2332715999677913,0.6541567695961996,0.8536917318815924,0.198167483486043,0.3661733137498587,0.898968173230635,0.90144813059505,0.8969336219336219,0.7637551435964876,0.096495454691465,0.0956657730116175
0.1646514405135095,0.2354456880586199,0.6278701504354711,0.8442497448111603,0.2172384402301299,0.3582646028697322,0.8909460834181079,0.8909426013691416,0.8823232323232323,0.7580706740762738,0.1084449584015932,0.1096067917783735
0.1621137483206448,0.2273129881632981,0.6174188440221696,0.8500340251786322,0.2190496484125293,0.3487741498135804,0.876413312018602,0.8742496050552921,0.8590909090909091,0.7435201289610998,0.1143554656130545,0.1139857015192136
0.1668905806836841,0.2232063773250664,0.5990498812351545,0.8494385845525689,0.2286383976134668,0.3393966783414304,0.8624327859322772,0.8581621906266456,0.8371572871572871,0.731217918805413,0.1206193183643313,0.1194369973190348
0.1805493357217495,0.2287623802238505,0.5811559778305623,0.8388057162300103,0.2443000213083315,0.3369110834933905,0.8522598459526232,0.8454713006845709,0.8199494949494949,0.7211216221948841,0.1297099354341331,0.1283735478105451
0.2036871174802209,0.2375392543683066,0.5491686460807601,0.8209424974481117,0.2716812273598977,0.3316009490453055,0.8466211306496149,0.8377303844128489,0.8082251082251082,0.7162431595469394,0.1449037936462047,0.1467381590705987
0.2198089267054784,0.237378210806023,0.5146476642913699,0.8118407621640015,0.2948007670999361,0.3191729748051067,0.8400813835198372,0.8295155344918378,0.796969696969697,0.710219318712086,0.1582345571937939,0.1609472743521001
0.2130168681892819,0.2244947258233351,0.5037212984956453,0.8224736304865602,0.2936288088642659,0.3062930742289006,0.8291527394274087,0.8175882043180621,0.7785714285714286,0.6969838374411403,0.1617037679483473,0.162153708668454
0.2139871622630243,0.2182140268942748,0.4894695170229612,0.8252807077237156,0.2990624334114639,0.2968026211727488,0.8194448481325389,0.8061874670879411,0.7606421356421356,0.683493827684215,0.1635668626128296,0.162645218945487
0.2206299447678757,0.2220790723890812,0.482818685669042,0.8194964273562437,0.3060941828254847,0.2971415659247542,0.8153175410550793,0.7993944181147973,0.7516594516594516,0.6773851440207017,0.1696058591114966,0.1695263628239499
0.2280191073294521,0.2274740317255818,0.4779097387173396,0.8123511398434842,0.3130193905817174,0.2991752344367868,0.8181078331637843,0.8006582411795682,0.7535714285714286,0.6815000212107072,0.1760945681153833,0.1768543342269883
0.2286908493805045,0.2268298574764474,0.4750593824228029,0.8123511398434842,0.3144044321329639,0.2977064738447633,0.819735503560529,0.8020537124802527,0.7554112554112554,0.6837059347558648,0.1780219074234685,0.1794012511170688
0.2196596506941334,0.2162009823657299,0.4734758511480603,0.8230690711126235,0.3085446409546132,0.2896847813806349,0.8163929661386427,0.7987888362295945,0.7509018759018758,0.6786577864506003,0.1740708618418939,0.1741286863270777
0.2178683385579937,0.2116112408406474,0.4679334916864608,0.8265566519224227,0.3090773492435542,0.2844876285165518,0.812614445574771,0.795734597156398,0.7458874458874458,0.6727612098587367,0.1715331984195817,0.1704647006255585
0.2358560979250634,0.2195828971736855,0.4456057007125892,0.8120959510037429,0.3294268058810995,0.2821150152525138,0.8101148088940561,0.7951816745655608,0.7429292929292929,0.671700674500488,0.1772830940220359,0.1780607685433422
0.2486938349007314,0.2228037684193574,0.4245447347585115,0.8030792786662131,0.3457276795226933,0.2768048808044288,0.8103473332364481,0.7954713006845708,0.7418109668109668,0.6749247019895644,0.1871767691368732,0.1900804289544236
0.2490670249290938,0.2199855060793945,0.4182106096595408,0.80435522286492,0.3480715959940336,0.272624562196362,0.8100566778084581,0.7933122696155872,0.7365079365079364,0.6707249819708989,0.1921878513378947,0.1962913315460232
0.2414539483505,0.2100008052178114,0.4148851939825811,0.8139673358285131,0.3437033880247176,0.2644898881482318,0.8017729981107398,0.7849394418114797,0.7238816738816739,0.6582530861578926,0.18846166200893,0.1906166219839142
0.2412300343334826,0.2047668894435945,0.4050673000791767,0.8168594760122492,0.3468996377583635,0.2572590667721161,0.7955820374945501,0.7788046340179042,0.7152958152958153,0.6507869172358207,0.1854742860813979,0.1854781054512958
0.2460068666965218,0.2069409775344231,0.3990498812351545,0.8129465804695475,0.3523332623055614,0.2566941588521071,0.7965412004069176,0.7794365455502895,0.7155122655122655,0.6504051245068512,0.1877549709292987,0.1854334226988382
0.2530228392297358,0.211772284402931,0.3938242280285037,0.8064817965294319,0.3591519284040059,0.2581629194441306,0.8013951460543526,0.7834913112164297,0.720923520923521,0.6561320154413949,0.1950788603000225,0.1936550491510277
0.2527989252127183,0.2082293260326918,0.3873317498020586,0.8084382443007827,0.3611762199019816,0.2533047113320528,0.8014823426827496,0.784044233807267,0.7224386724386723,0.6565986509990244,0.1976165237223346,0.1986595174262734
0.2448872966114345,0.197358885578549,0.3825811559778305,0.8187308608370194,0.357021095248242,0.2440402214439046,0.7980235430896672,0.7815955766192733,0.7168109668109667,0.6492173249056125,0.1939224567151714,0.1959338695263628
0.2389162561576354,0.1850390530638537,0.371021377672209,0.8285981626403539,0.3567014702748775,0.2312733024517003,0.79529138206656,0.7783043707214323,0.7117243867243866,0.645017604886947,0.190838713822235,0.1919571045576407
0.2473503507986266,0.1860858362186971,0.3553444180522566,0.8232391970057843,0.3679948860004262,0.2264150943396226,0.7964540037785206,0.7800684570826751,0.7142857142857143,0.6490476392482926,0.1936012334971572,0.1962466487935656
0.2572772055530676,0.192124969804332,0.346159936658749,0.8143926505614154,0.3781163434903047,0.227318947011637,0.8017148670251417,0.785492364402317,0.722077922077922,0.6564289653417046,0.1985801933763772,0.2028150134048257
0.2562322734736528,0.1889846203398019,0.3422011084718923,0.8166893501190882,0.3787555934370338,0.223816517907581,0.8038075861066706,0.7883359662980516,0.7251803751803753,0.6585500360582023,0.1989656612379942,0.2031724754244861
0.2489177489177489,0.1846364441581447,0.3491686460807602,0.8231541340592039,0.371191135734072,0.2231386284035702,0.7999128033716029,0.7851500789889415,0.7195165945165946,0.6516777669367497,0.1934727442099515,0.1965147453083109
0.2460068666965218,0.1834286174410177,0.3531274742676168,0.8254508336168767,0.3677818026848498,0.223816517907581,0.7952623165237611,0.7812796208530806,0.7145743145743145,0.6481992109616935,0.1886543959397385,0.1902591599642537
0.251530079116286,0.1903534906192125,0.3548693586698337,0.8185607349438585,0.371191135734072,0.2292396339396678,0.8002615898851911,0.7857556608741443,0.7205266955266956,0.654095787553557,0.1896823102373839,0.1893655049151028
0.264069264069264,0.2006602786053627,0.348535233570863,0.8060564817965294,0.3822714681440443,0.2342108236357473,0.8058421741026014,0.7908636124275934,0.7267316017316017,0.6599923641454206,0.1931836433137387,0.1934763181411975
0.261009105836692,0.1998550607939447,0.3534441805225652,0.8081830554610412,0.378329426805881,0.2353406394757654,0.804737683476239,0.7916008425487098,0.728932178932179,0.6643617698214058,0.1945970254730012,0.1946380697050938
0.2496641289744738,0.1905950559626379,0.3593032462391133,0.8195814903028241,0.3683145109737907,0.2309343576996949,0.8011626217119605,0.7883096366508688,0.7236291486291486,0.6587197217155221,0.1900035334553981,0.190035746201966
0.2477981788326616,0.1868910540301151,0.3561361836896279,0.8225586934331406,0.3679948860004262,0.227318947011637,0.7998546722860049,0.7852553975776725,0.7185425685425686,0.6512111313791202,0.1864700780572419,0.1869079535299374
0.2586206896551724,0.1947016668008696,0.3483768804433887,0.8122660768969038,0.3784359684636693,0.2299175234436787,0.8002615898851911,0.7859136387572406,0.7214646464646464,0.6528231451236585,0.1887186405833413,0.1890080428954423
0.2665323182564562,0.2033174973830421,0.348535233570863,0.803249404559374,0.3839761346686554,0.2360185289797763,0.8036913239354745,0.7902580305423907,0.729076479076479,0.6626224918338778,0.1952394719090296,0.1945040214477212
0.2674279743245261,0.2000161043562283,0.3401425178147268,0.8044402858115006,0.3874920093756658,0.2307083945316913,0.8056677808458073,0.7923907319641917,0.7306637806637807,0.665973783565944,0.1964601201374835,0.1962466487935656
0.2598895357516047,0.1912392302117723,0.3390340459224069,0.81337189520245,0.3824845514596207,0.2242684442435882,0.8016276703967447,0.7895208004212744,0.726190476190476,0.6585076146438723,0.190838713822235,0.1925826630920464
0.2536199432751156,0.1855221837507045,0.3409342834520981,0.819921742089146,0.3772640102279991,0.220878996723534,0.7975875599476819,0.7848867825171143,0.7189393939393939,0.6498536461205617,0.185024573576178,0.1854334226988382
0.2593670697118972,0.1901924470569289,0.337925574030087,0.8142225246682546,0.3823780098018325,0.2231386284035702,0.7995349513152158,0.7862559241706161,0.7196608946608947,0.6517201883510797,0.1874337477112845,0.1882484361036639
0.2699656665173906,0.1975199291408326,0.3298495645288994,0.80435522286492,0.3927125506072874,0.2253982600836063,0.8023543089667199,0.7898894154818326,0.7248196248196247,0.6579561362575829,0.1929266647393273,0.1938337801608579
0.2742200328407225,0.1979225380465416,0.3216152019002375,0.8017182715209255,0.3984658001278499,0.222686702067563,0.8040401104490625,0.7908899420747761,0.7255772005772005,0.6578288720145931,0.1933121326009444,0.1956657730116175
0.2651888341543513,0.1864079233432643,0.3181314330958037,0.8128615175229671,0.3932452588962284,0.2134222121794147,0.8006394419415782,0.7865455502896261,0.7183621933621933,0.649599117634582,0.1876907262856959,0.1878909740840036
0.2570532915360501,0.1788388759159352,0.3203483768804434,0.821537938074175,0.3866396761133603,0.2089029488193424,0.7962505449789276,0.7831226961558715,0.7145382395382396,0.6454418190302466,0.1848639619671709,0.1851653261840929
0.2639946260635916,0.189709316370078,0.3271575613618369,0.8118407621640015,0.3893032175580652,0.2189583097955033,0.7968899869205057,0.7844391785150079,0.7151875901875901,0.648750689347983,0.1874016253894831,0.1892314566577301
0.2745932228690849,0.2000966261373702,0.3250989707046715,0.8002722014290575,0.3976134668655444,0.2255112416676082,0.7987792472024415,0.7870194839389153,0.7182539682539683,0.6519322954227295,0.1912884263274549,0.193923145665773
0.2766084490222421,0.2012239310733553,0.323040380047506,0.7985709424974482,0.3997443000213083,0.2255112416676082,0.8011916872547595,0.7884412848867826,0.7184343434343433,0.6491324820769525,0.1907744691786322,0.1934316353887399
0.2682489923869234,0.189709316370078,0.3181314330958037,0.8093739367131677,0.3954826337097805,0.2156818438594508,0.7958145618369423,0.7842548709847288,0.7134920634920635,0.6415814703262207,0.1852815521505894,0.186148346738159
0.2657113001940588,0.1856027055318463,0.3154394299287411,0.813031643416128,0.3945237587896867,0.2118404700033894,0.7923557622438598,0.7804107424960506,0.708080808080808,0.6369575361642558,0.1825511547974687,0.1818141197497765
0.2660844902224212,0.1944601014574442,0.3320665083135392,0.8081830554610412,0.389196675900277,0.2239294994915828,0.7943031536113937,0.7818852027382833,0.7099567099567099,0.6406481992109617,0.1846712280363624,0.184361036639857
0.2771309150619495,0.2072630646589902,0.3338083927157561,0.7950833616876489,0.3965480502876625,0.2335329341317365,0.7970643801772999,0.7848341232227488,0.713997113997114,0.645950876002206,0.1892004754103626,0.1898123324396783
0.277205553067622,0.20814880425155,0.3353919239904988,0.7945729840081661,0.3960153419987214,0.2347757315557563,0.7985757884028485,0.7853080568720379,0.713924963924964,0.6457387689305563,0.1907744691786322,0.1920017873100983
0.2658605762054038,0.194540623238586,0.3326999208234362,0.8081830554610412,0.3887705092691242,0.2242684442435882,0.7944775468681877,0.7814375987361769,0.7079365079365079,0.6401391422390023,0.1865664450226462,0.1884271671134942
0.2602627257799671,0.1859247926564136,0.3274742676167854,0.8160088465464445,0.3865331344555721,0.2163597333634617,0.7904955675047232,0.7781990521327014,0.7034992784992785,0.6363636363636364,0.1848960842889724,0.1866845397676497
0.2715330646365129,0.1965536677671309,0.3246239113222486,0.8039299081320178,0.3955891753675687,0.2227996836515647,0.7916581892166836,0.7802527646129542,0.7050505050505049,0.6365333220209562,0.185634897690405,0.1885612153708668
0.2852664576802508,0.2104034141235204,0.3227236737925574,0.7887887036406942,0.4060302578308118,0.2318382103717093,0.7953495131521582,0.7820695102685624,0.7081168831168831,0.6393755567810631,0.1872088914586746,0.1908847184986595
0.2757874309598447,0.2075851517835575,0.33729216152019,0.7956788023137121,0.3944172171318985,0.23500169472376,0.7959017584653393,0.7823591363875725,0.7076118326118326,0.639460399609723,0.1863415887700363,0.1890974084003574
0.2615315718763994,0.1940574925517352,0.3409342834520981,0.8109901326981968,0.3829107180907735,0.2268670206756298,0.7922976311582619,0.7784623486045287,0.7019480519480519,0.6329275018029101,0.1821656869358517,0.1836014298480786
0.2621286759217793,0.1901924470569289,0.3320665083135392,0.8126913916298061,0.3863200511399957,0.2209919783075358,0.7886644383083854,0.7760400210637177,0.6990259740259741,0.6286005175412549,0.1792746779737239,0.1810098302055406
0.2663084042394387,0.1991303647636686,0.340775930324624,0.8055461041170466,0.3864265927977839,0.2303694497796858,0.7909896817323063,0.7772248551869405,0.6989898989898989,0.629364102999194,0.1814589958562204,0.1857015192135835
0.2763098969995521,0.208954022062968,0.3387173396674585,0.7946580469547465,0.3943106754741103,0.2364704553157835,0.7950007266385699,0.7813586097946288,0.7043650793650793,0.6352606795910576,0.1871125244932704,0.1924932975871313
0.2791461412151067,0.2033174973830421,0.3217735550277118,0.796019054100034,0.4019816748348604,0.2265280759236244,0.7954076442377561,0.7812006319115323,0.7047619047619048,0.6344122513044586,0.1881404387909158,0.1936550491510277
0.2687714584266308,0.1901119252757871,0.3178147268408551,0.808863559033685,0.3959088003409333,0.2159078070274545,0.7924720244150559,0.7783307003686151,0.6997835497835497,0.6289823102702244,0.184028781600334,0.1878016085790884
0.2649649201373339,0.1859247926564136,0.3176563737133808,0.8132868322558694,0.3932452588962284,0.2128573042594057,0.7893329457927626,0.775724065297525,0.6984126984126984,0.625800704195478,0.1819087083614403,0.1851653261840929
0.2719062546648753,0.192124969804332,0.3151227236737925,0.8060564817965294,0.3989985084167909,0.2162467517794599,0.7897398633919488,0.7763823064770932,0.7003246753246752,0.6288974674415646,0.1833542128425042,0.1878909740840036
0.2769816390506046,0.2008213221676463,0.3216152019002375,0.7985709424974482,0.4004900916258257,0.2247203705795955,0.7942740880685947,0.7807266982622433,0.7047619047619048,0.6340728799898189,0.1881404387909158,0.1930294906166219
0.2751156889087923,0.1984056687333923,0.3206650831353919,0.8008676420551208,0.3994246750479437,0.222686702067563,0.7931986629850313,0.780647709320695,0.7038239538239538,0.6325032876596106,0.1871767691368732,0.1924486148346738
0.267875802358561,0.1888235767775183,0.317181314330958,0.8100544402858115,0.3954826337097805,0.2147779911874364,0.7894201424211597,0.776119010005266,0.6982323232323232,0.6267339753107369,0.1825511547974687,0.1880697050938337
0.2624272279444693,0.1844754005958611,0.3201900237529692,0.8154984688669616,0.3905817174515235,0.2127443226754038,0.7874146199680279,0.7733807266982622,0.6948773448773449,0.6227887837780512,0.1800777360187594,0.187444146559428
0.2691446484549932,0.1943795796763024,0.3254156769596199,0.8064817965294319,0.3936714255273812,0.2215568862275448,0.7889260281935765,0.7750394944707741,0.6964285714285714,0.6260976540957877,0.1824226655102631,0.190437890974084
0.2797432452604866,0.2029148884773331,0.3197149643705463,0.7958489282068731,0.4031536330705306,0.2255112416676082,0.7922104345298648,0.778436018957346,0.7013347763347763,0.6307215882577526,0.1862130994828306,0.1928507596067918
0.2722048066875653,0.1963121024237056,0.3228820269200317,0.8036747192922763,0.3966545919454506,0.2220088125635521,0.792413893329458,0.7790679304897314,0.7023088023088022,0.6302125312857931,0.1851209405415823,0.1915996425379803
0.2600388117629497,0.182542877848458,0.3214568487727632,0.8178802313712148,0.3884508842957596,0.2118404700033894,0.7887807004795815,0.7759347024749869,0.6962481962481962,0.6226615195350614,0.1798528797661495,0.1865058087578195
0.2622779519331243,0.1785973105725099,0.3091053048297704,0.8187308608370194,0.3942041338163222,0.2047226302112755,0.7862229327132684,0.7725645076355977,0.6915945165945165,0.6180375853730964,0.17782917349266,0.1844504021447721
0.267129422301836,0.1866494886866897,0.3144893111638955,0.8116706362708405,0.3958022586831451,0.2121794147553948,0.7873564888824299,0.7738546603475513,0.6930014430014431,0.6200313918466042,0.180431081558575,0.1857908847184986
0.2784743991640543,0.2010628875110717,0.3187648456057007,0.797635250085063,0.4025143831238014,0.223816517907581,0.7923557622438598,0.7782253817798841,0.7007215007215007,0.6288126246129047,0.1851851851851852,0.1911974977658623
0.2748917748917748,0.1992108865448103,0.3225653206650831,0.8006124532153794,0.3986788834434264,0.2239294994915828,0.792501089957855,0.7786466561348078,0.7022727272727273,0.6305094811861028,0.1857312646558093,0.1927613941018766
0.2620540379161069,0.1865689669055479,0.3252573238321458,0.8145627764545764,0.3885574259535478,0.2160207886114563,0.7885191105943903,0.7746972090573986,0.6955627705627705,0.6231705765070208,0.1813305065690148,0.1863717605004468
0.2564561874906702,0.1835091392221595,0.3309580364212193,0.8194113644096631,0.3826976347751971,0.2159078070274545,0.7859613428280773,0.7713796735123749,0.6908730158730159,0.6186314851737157,0.1787928431467026,0.1824843610366398
0.2615315718763994,0.1880988807472421,0.3293745051464767,0.8141374617216741,0.3868527594289366,0.2186193650434978,0.787385554425229,0.7735387045813585,0.6943001443001442,0.6227039409493913,0.1828723780154829,0.1881143878462913
0.2725779967159277,0.1956679281745712,0.3205067300079176,0.8038448451854373,0.3977200085233326,0.2206530335555304,0.7919779101874728,0.7776987888362297,0.6993145743145742,0.6283884104696051,0.1870482798496675,0.193923145665773
0.2722794446932378,0.1954263628311458,0.3208234362628662,0.8041000340251787,0.397400383549968,0.2206530335555304,0.7915128615026886,0.7783570300157977,0.7013708513708513,0.6295337886565139,0.1872088914586746,0.1932082216264521
0.2574264815644125,0.1822207907238908,0.3265241488519398,0.8195814903028241,0.384828467930961,0.2134222121794147,0.7878506031100131,0.773117430226435,0.6952380952380952,0.6224069910490816,0.1808486717419935,0.1850759606791778
0.2533213912524257,0.1771479185119574,0.3250989707046715,0.8245151412044914,0.3824845514596207,0.2093548751553497,0.7860194739136753,0.7714849921011059,0.6918831168831169,0.6190556993170153,0.1786001092158941,0.1818588025022341
0.2628750559785042,0.1838312263467268,0.3181314330958037,0.815583531813542,0.3915405923716172,0.2116145068353858,0.7874727510536259,0.7734860452869932,0.6942279942279942,0.6203707631612438,0.1822299315794545,0.185254691689008
0.270786684579788,0.1938159272083098,0.3208234362628662,0.8058012929567882,0.3963349669720861,0.2195232177155123,0.7903793053335271,0.7764349657714587,0.6985930735930735,0.6246977474228992,0.1875622369984902,0.1920017873100983
0.2636214360352291,0.192124969804332,0.332541567695962,0.8107349438584552,0.3872789260600895,0.2225737204835612,0.7905246330475222,0.7765402843601895,0.6974025974025975,0.6243159546939295,0.1870482798496675,0.1928060768543342
0.2551873413942379,0.1834286174410177,0.3334916864608077,0.8201769309288874,0.380992968250586,0.216811659699469,0.7860776049992734,0.7723802001053186,0.6929292929292928,0.6202434989182539,0.1822941762230573,0.1864164432529043
0.2533213912524257,0.178919397697077,0.3285827395091052,0.8236645117386867,0.3812060515661624,0.2118404700033894,0.7841302136317396,0.770115850447604,0.6906926406926407,0.6164255716285582,0.1788892101121069,0.1813226094727435
0.25824749962681,0.1839117481278686,0.3279493269992082,0.8182204831575366,0.3850415512465374,0.2151169359394418,0.7861648016276704,0.7714323328067404,0.6915945165945165,0.6168922071861876,0.1801419806623622,0.1836014298480786
0.2616808478877444,0.1928496658346083,0.3382422802850356,0.8115005103776796,0.3839761346686554,0.2250593153316009,0.7883737828803953,0.7745392311743022,0.6961760461760461,0.623000890849701,0.1838681699913269,0.1893208221626452
0.2598895357516047,0.1914807955551976,0.3391923990498812,0.8132017693092889,0.3823780098018325,0.2244944074115918,0.7891004214503706,0.7754870984728804,0.6967532467532468,0.6216009841768125,0.1833863351643056,0.1897676496872207
0.2521271831616659,0.1776310491988082,0.3287410926365796,0.8249404559373937,0.3803537183038568,0.2110495989153767,0.7863682604272635,0.7725645076355977,0.6918109668109668,0.61477113646969,0.1795959011917381,0.186148346738159
0.2483952828780415,0.1706256542394718,0.3227236737925574,0.8308097992514462,0.3797144683571276,0.2039317591232629,0.7830257230053771,0.7693786203264876,0.6875541125541125,0.6113774233232937,0.1774115833092416,0.1836461126005361
0.2546648753545305,0.1756180046702632,0.3193982581155977,0.8246002041510718,0.3853611762199019,0.206191390803299,0.7868333091120476,0.7728541337546077,0.6925685425685425,0.6196071777033046,0.1821014422922489,0.1884271671134942
0.2612330198537095,0.1856832273129881,0.3250989707046715,0.815583531813542,0.3880247176646068,0.2153428991074455,0.7894782735067577,0.7760663507109005,0.6972943722943722,0.6253340686378485,0.186630689666249,0.1923145665773011
0.2595909837289147,0.1842338352524358,0.3257323832145685,0.8172847907451515,0.3866396761133603,0.2145520280194328,0.7890422903647726,0.7748815165876777,0.6959595959595959,0.6235947906503203,0.1854742860813979,0.1917783735478105
0.2496641289744738,0.1779531363233755,0.3344418052256532,0.8262164001361008,0.3767313019390582,0.2131962490114111,0.7834326406045633,0.7712216956292786,0.6908730158730159,0.6185042209307259,0.1817480967524332,0.1854781054512958
0.2461561427078668,0.1776310491988082,0.3412509897070467,0.8284280367471929,0.3719369273385894,0.2154558806914472,0.7818631012934166,0.768852027382833,0.6883477633477634,0.6139651295974209,0.1794031672609296,0.1818141197497765
0.251380803104941,0.1850390530638537,0.3447347585114806,0.821537938074175,0.3743873854677178,0.2218958309795503,0.7842464758029356,0.7709583991574512,0.6913419913419914,0.6171043142578374,0.1811056503164048,0.1857462019660411
0.2635467980295566,0.1909976648683469,0.3306413301662707,0.8114154474310992,0.3878116343490305,0.2211049598915377,0.7886353727655864,0.7749605055292259,0.6963924963924965,0.6224918338777415,0.1858918762648164,0.1924039320822162
0.2607851918196746,0.1876962718415331,0.3300079176563737,0.8147329023477373,0.3861069678244193,0.218506383459496,0.7908443540183112,0.7759873617693522,0.6980158730158731,0.6241462690366097,0.1882689280781214,0.1955764075067024
0.2472010747872816,0.1785167887913681,0.340775930324624,0.8273222184416469,0.3727892606008949,0.2159078070274545,0.7890713559075716,0.7732754081095313,0.69505772005772,0.6200738132609342,0.184028781600334,0.1916890080428954
0.2450365726227795,0.1842338352524358,0.3567695961995249,0.825535896563457,0.3658640528446622,0.22562422325161,0.7893620113355617,0.7724065297525013,0.6934704184704185,0.6200738132609342,0.1814589958562204,0.1870866845397676
0.2528735632183908,0.2033980191641838,0.3776722090261283,0.8109050697516162,0.3644790112934157,0.2465258162919443,0.7944484813253888,0.7753817798841496,0.6986291486291486,0.6272006108683664,0.1843178824965468,0.1889633601429848
0.2660098522167488,0.220549158547387,0.3835312747426763,0.7944028581150052,0.3718303856808012,0.2606485142921703,0.799970934457201,0.7812532912058978,0.7065295815295816,0.635006151105078,0.1896180655937811,0.195308310991957
0.2655620241827138,0.2232868991062082,0.3898653998416468,0.7932119768628786,0.3693799275516727,0.2648288329002373,0.802412440052318,0.7836229594523434,0.7095959595959596,0.6381453357654945,0.1915775272236677,0.197899910634495
0.2577250335871025,0.2182140268942748,0.3965162311955661,0.8003572643756381,0.3616023865331344,0.2636990170602191,0.7995640168580148,0.7799631384939442,0.7038600288600289,0.6315275951300217,0.1867591789534547,0.1924486148346738
0.2566054635020152,0.2186166357999839,0.3996832937450515,0.8007825791085404,0.3596846366929469,0.2650547960682408,0.7991570992588287,0.7769088994207477,0.6997113997113997,0.6261824969244475,0.1832578458771,0.1886505808757819
0.2688460964323033,0.2283597713181415,0.3930324623911322,0.7886185777475332,0.370658427445131,0.2695740594283131,0.8011626217119605,0.7798051606108477,0.7044011544011545,0.6320790735163111,0.1886543959397385,0.1949955317247542
0.2813106433796088,0.2422900394556728,0.3938242280285037,0.7742429397754338,0.3792883017259748,0.2795164388204723,0.8035169306786805,0.783938915218536,0.7125901875901876,0.6418784202265304,0.1957855513796537,0.2041554959785523
0.2851918196745783,0.2552540462195024,0.4112430720506731,0.7651412044913236,0.3761985936501171,0.2948819342447181,0.799941868914402,0.7837546076882569,0.7151875901875901,0.6465871972171553,0.1998329639266326,0.2088918677390527
0.2801164352888491,0.2591190917143087,0.4294536817102138,0.7659918339571282,0.3663967611336032,0.3040334425488645,0.787385554425229,0.7764612954186414,0.7091630591630592,0.6428541127561194,0.1975844014005332,0.2067024128686327
0.2778026571130019,0.269425879700459,0.4546318289786224,0.7619088125212657,0.3562753036437247,0.3203027906451248,0.7738119459380903,0.768957345971564,0.7026695526695526,0.638569549908794,0.1964922424592849,0.2063002680965147
0.293700552321242,0.2915693695144536,0.4644497228820269,0.7410683906090508,0.3643724696356275,0.3392836967574285,0.7691614590902485,0.7673512374934176,0.7022366522366522,0.6399270351673525,0.2008287559024766,0.2126899016979446
0.2995969547693686,0.2984942426926484,0.4657165479018211,0.7340932289894522,0.3682079693160025,0.3445938312055135,0.7690742624618514,0.7682991047919957,0.7032106782106782,0.6410724133542612,0.2037197648646044,0.2169347631814119
0.2924317062248096,0.2738545776632579,0.4321456848772764,0.7511908812521266,0.3742808438099296,0.3154445825330471,0.7627670396744659,0.7637704054765666,0.6944444444444444,0.6297458957281636,0.1974880344351289,0.210455764075067
0.277205553067622,0.2523552620983976,0.422486144101346,0.7712657366451174,0.3667163861069678,0.2968026211727488,0.7548030809475367,0.7566877303844128,0.6830086580086581,0.6180375853730964,0.1899714111335967,0.2017426273458445
0.2766084490222421,0.2535630888155246,0.42596991290578,0.7709254848587955,0.3651182612401449,0.2989492712687831,0.7491353001017294,0.7525803054239073,0.678138528138528,0.612862172824842,0.1878192155729016,0.2002680965147453
0.2912374981340498,0.2754650132860939,0.4381631037212986,0.7510207553589657,0.3715107607074365,0.3187210484690995,0.7492515622729254,0.75347551342812,0.6805555555555555,0.6142620794977305,0.1921557290160932,0.2077747989276139
0.309299895506792,0.2877043240196473,0.4239113222486145,0.7342633548826133,0.389196675900277,0.3221104959891537,0.7536695247783752,0.7589520800421274,0.6887085137085137,0.6241038476222798,0.1997687192830297,0.2183646112600536
0.3191521122555605,0.2782832756260568,0.3843230403800476,0.7335828513099694,0.4095461325378223,0.3014348661168229,0.7570411277430606,0.763533438651922,0.6937590187590188,0.6305519026004327,0.2038803764736115,0.2228328865058087
0.3143752798925212,0.2540462195023754,0.3467933491686461,0.7491493705341953,0.418708715107607,0.2710428200203366,0.755704112774306,0.7610847814639284,0.6880952380952381,0.622958469435371,0.2003469210754553,0.2198391420911528
0.3228093745335124,0.2397133424591351,0.3007125890736342,0.7518713848247703,0.4402301299808225,0.2446051293639136,0.7560238337450952,0.7603475513428121,0.6865800865800865,0.6198192847749544,0.1987729273071857,0.2193476318141197
0.3331840573219883,0.2395522988968516,0.2783847980997624,0.7460871044572985,0.4551459620711698,0.2364704553157835,0.7631448917308531,0.7676408636124276,0.6952741702741702,0.6286005175412549,0.2048119238058527,0.2261394101876675
0.3271383788625168,0.2400354295837024,0.2921615201900238,0.7492344334807758,0.4461964628169614,0.2417805897638685,0.7719808167417526,0.774565560821485,0.7034992784992785,0.6373817503075554,0.2112042658443352,0.2319928507596068
0.319376026272578,0.2240921169176262,0.2772763262074426,0.7621640013610071,0.4456637545280204,0.2252852784996045,0.7736084871384973,0.7751974723538705,0.7035714285714285,0.6360242650489968,0.2092126818926472,0.2272564789991063
0.3043737871324078,0.1992914083259521,0.260332541567696,0.7837699897924465,0.4406562966119752,0.2017851090272285,0.7713995058857724,0.7720642443391258,0.6969696969696969,0.6259279684384678,0.1990620282033985,0.2125111706881143
0.2856396477086132,0.1870520975923988,0.2760095011876485,0.8009527050017013,0.4220115064990411,0.1987346062591797,0.7732306350821101,0.7708004212743549,0.6926767676767676,0.6203707631612438,0.1909672031094407,0.199597855227882
0.2705627705627705,0.1832675738787342,0.3005542359461599,0.8115005103776796,0.4030470914127423,0.2049485933792792,0.777735794215957,0.7707214323328068,0.6924603174603174,0.6184617995163959,0.1886222736179371,0.1948614834673816
0.2630989699955217,0.1808519204444802,0.3116389548693587,0.81702960190541,0.3939910505007458,0.2072082250593153,0.7828513297485831,0.7737756714060031,0.6954184704184704,0.6207949773045434,0.1887828852269442,0.1940571939231456
0.2542916853261681,0.1738465254851437,0.3167062549485352,0.8257910854031983,0.385893884508843,0.2040447407072647,0.7838104926609504,0.7743022643496578,0.6942640692640693,0.6176557926441268,0.1838681699913269,0.1897229669347631
0.2439916405433647,0.1607214751590305,0.3125890736342043,0.8385505273902689,0.3800340933304922,0.1933114902270929,0.7793343990699025,0.7694576092680359,0.6874458874458874,0.6087897170491665,0.175612733288362,0.1799374441465594
0.2392894461859978,0.154118689105403,0.3095803642121932,0.8447601224906431,0.3776901768591519,0.1876624110270026,0.7798285132974858,0.7681147972617166,0.6853896103896104,0.6076867602765876,0.1738138832674825,0.1755585344057194
0.2430213464696223,0.1590305177550527,0.3113222486144101,0.8399965974821368,0.3797144683571276,0.1917297480510677,0.7834907716901612,0.7703001579778831,0.6897907647907647,0.6136257582827812,0.177443705631043,0.1801161751563896
0.2522018211673384,0.1660359127143892,0.3056215360253365,0.8310649880911877,0.388131259322395,0.1946672692351147,0.7862229327132684,0.7740126382306477,0.6947330447330448,0.6216009841768125,0.1833863351643056,0.1869973190348525
0.2590685176892073,0.16651904340124,0.2920031670625495,0.8268969037087446,0.3977200085233326,0.1900350242910405,0.7859904083708763,0.776013691416535,0.6960678210678211,0.6216434055911424,0.1861167325174263,0.1903038427167113
0.2458575906851769,0.1554875593848136,0.2984956452889944,0.8402517863218782,0.3861069678244193,0.1847248898429556,0.7820665600930097,0.7729857819905213,0.6911255411255411,0.6144741865693802,0.1824869101538659,0.1867292225201072
0.2418271383788625,0.1560512118528061,0.3079968329374505,0.8422082340932291,0.3800340933304922,0.1884532821150152,0.7811945938090393,0.770221169036335,0.6878427128427128,0.6115895303949435,0.1789213324339083,0.1823503127792671
0.2521271831616659,0.1688541750543522,0.3113222486144101,0.8296189179993195,0.3862135094822075,0.1986216246751779,0.7834617061473623,0.7736703528172723,0.6924963924963925,0.6173164213294872,0.1815874851434261,0.1862823949955317
0.2574264815644125,0.1697399146469119,0.301821060965954,0.8261313371895204,0.3931387172384402,0.1959100666591345,0.7859904083708763,0.7770932069510268,0.6967893217893217,0.6206252916472236,0.1854421637595965,0.1919571045576407
0.2491416629347663,0.1608019969401723,0.3016627078384798,0.8355733242599525,0.3873854677178777,0.1894701163710315,0.7855834907716902,0.7764612954186414,0.6970779220779221,0.6206252916472236,0.1855385307250008,0.1919571045576407
0.2407075682937751,0.150897817859731,0.3002375296912114,0.8456107519564479,0.3818453015128915,0.182126313410914,0.7786368260427263,0.7711953659820958,0.6932178932178932,0.6196920205319646,0.1829045003372843,0.186148346738159
0.248022092849679,0.155729124728239,0.294061757719715,0.8388907791765907,0.3890901342424888,0.1832561292509321,0.7730853073681151,0.7718009478672986,0.7011904761904761,0.6309761167437323,0.1851530628633837,0.1858355674709562
0.2685475444096133,0.1679684354617924,0.2747426761678543,0.8206873086083702,0.4102919241423396,0.1849508530109592,0.775381485249237,0.7835439705107952,0.7287518037518037,0.6613922708183091,0.1950146156564196,0.1935656836461126
0.2925063442304821,0.1781947016668008,0.2438638163103721,0.8017182715209255,0.4376731301939057,0.1811094791548977,0.7685801482342682,0.788678251711427,0.7513347763347764,0.703643999490943,0.2116539783495551,0.2068811438784629
0.3088520674727571,0.1993719301070939,0.2509897070467142,0.7812181013950324,0.447048796079267,0.1985086430911761,0.7409969481180061,0.7611637704054766,0.7454184704184704,0.7537436898146185,0.2440654010471876,0.2325737265415549
0.3236303925959098,0.2430147354859489,0.3056215360253365,0.7496597482136782,0.4391647134029405,0.248559484803977,0.6900741171341375,0.6873617693522907,0.6909451659451659,0.7905654774530184,0.2866595997558703,0.2670241286863271
0.3575160471712196,0.327482083903696,0.3996832937450515,0.6857774753317455,0.4317067973577669,0.3414303468534629,0.6143002470571137,0.5834123222748815,0.6103174603174603,0.8373987188732874,0.356718383604767,0.3250670241286863
0.432004776832363,0.4520492793300588,0.4866191607284245,0.5774923443348078,0.4555721287023226,0.4598350468873572,0.520970789129487,0.486940494997367,0.540945165945166,0.9122725151656558,0.4635893482380906,0.4198391420911528
0.5067174205105239,0.5770996054432724,0.5741884402216945,0.4689520244981286,0.4794374600468782,0.5788046548412608,0.429734050283389,0.395839915745129,0.4505411255411255,0.94506426844271,0.5727088753975138,0.5252904378909741
0.5919540229885057,0.7060954988324342,0.6468725257323833,0.3521605988431439,0.515874707010441,0.6952886679471246,0.3111757012062199,0.2856240126382307,0.3288239538239538,0.9493912527043652,0.6965083036201857,0.6473637176050044
0.6912972085385878,0.8237378210806023,0.6674584323040381,0.2334127254168084,0.5797997016833581,0.7851090272285616,0.1895364045923557,0.182885729331227,0.2154761904761905,0.957875535570356,0.8375895409720214,0.7822609472743521
0.7953425884460368,0.8951606409533778,0.5873317498020587,0.1364409663150731,0.6811208182399319,0.8065755281889051,0.1153611393692776,0.139942074776198,0.1577922077922077,0.9494336741186952,0.9411519064597988,0.8915549597855229
0.8720704582773549,0.8909735083340042,0.4161520190023753,0.094930248383804,0.7934157255486896,0.742627951643882,0.1179770382211886,0.170300157977883,0.1625180375180374,0.8886437873838715,0.9598792200700268,0.9398123324396782
0.8602030153754292,0.827522344794267,0.3163895486935867,0.1352500850629465,0.8184530151289153,0.6625240085866003,0.1688417381194593,0.2098736176935229,0.1284271284271284,0.680821278581428,0.861199447496065,0.9052278820375336
0.8007911628601284,0.7395925597874224,0.2696753760886777,0.2154644436883294,0.7918176006818666,0.5842277708733475,0.2304316233105652,0.2475250131648236,0.0807359307359307,0.4212446442964409,0.7100639234203848,0.8287310098302055
0.7366771159874608,0.6414365085755698,0.2125098970704671,0.3039299081320177,0.765288727892606,0.4949723195119195,0.3021363173957273,0.3024749868351764,0.078066378066378,0.224791074534425,0.5751180495326202,0.7458445040214476
0.6890580683684132,0.5856349142443031,0.2039588281868566,0.36049676760803,0.7341785638184529,0.4527172070952434,0.3722714721697427,0.3669299631384939,0.1216810966810967,0.133924405039664,0.4693071215187434,0.6722073279714031
0.6209135691894313,0.5694500362348015,0.3167062549485352,0.4078768288533516,0.6476667376944385,0.4815275110157044,0.4476965557331783,0.4345444971037387,0.2034992784992784,0.1614983243541339,0.3936911759982011,0.6031724754244862
0.5287356321839081,0.5385296722763508,0.4514647664291371,0.4766927526369513,0.5365437886213509,0.5079652016721273,0.5247783752361576,0.5025013164823591,0.2985209235209235,0.2399355194502185,0.3374771128457164,0.529088471849866
0.4195402298850574,0.4642885900636121,0.5371338083927159,0.5781728479074516,0.4296825058597912,0.486385719127782,0.6044179625054498,0.5772511848341232,0.4059523809523809,0.3393288932253001,0.2821303523818701,0.4359249329758713
0.3201224063293029,0.3753120219019245,0.5730799683293746,0.6818645797890438,0.3466865544427871,0.4367868037509886,0.6757738700770237,0.6517904160084255,0.5143939393939394,0.4423705086327578,0.2366130223892583,0.3407953529937444
0.2636960740409016,0.2885095418310653,0.5220902612826605,0.7598673018033345,0.3235670147027487,0.3576996949497232,0.7313762534515332,0.7122696155871511,0.601082251082251,0.5216561320154415,0.1985159487327744,0.2619302949061662
0.2450365726227795,0.2323053385940897,0.4511480601741884,0.8001871384824771,0.33411463882378,0.2929612473166873,0.7731725039965122,0.7570036861506055,0.6628066378066377,0.5748525855852035,0.1733320484404612,0.2085790884718498
0.2339155097775787,0.1952653192688622,0.4020585906571656,0.8260462742429399,0.3426379714468357,0.2494633374759913,0.7994186891440197,0.7839915745129016,0.7004329004329004,0.6079837101768973,0.1653657126337091,0.1871760500446827
0.222495894909688,0.1664385216200982,0.3694378463974664,0.8478223885675401,0.345514596207117,0.2176025307874816,0.8110158407208254,0.7968931016324381,0.7182178932178932,0.6233402621643406,0.1603867527544891,0.1759606791778373
0.2080161218092252,0.1431677268701184,0.3543942992874109,0.8683225586934332,0.3401875133177072,0.1960230482431363,0.8154338032262752,0.8030279094260137,0.725937950937951,0.6292792601705341,0.1533840866017795,0.1625558534405719
0.2113748320644872,0.1436508575569691,0.3480601741884403,0.8661959850289214,0.3447688046025996,0.1939893797311039,0.8203458799593083,0.8087677725118483,0.7354256854256854,0.636745429092606,0.1507821785358646,0.1562109025915996
0.2198835647111509,0.1487237297689024,0.3401425178147268,0.8586253827832597,0.3535052205412315,0.1947802508191164,0.8290655427990118,0.8180621379673513,0.7474747474747474,0.6480295253043737,0.1535446982107866,0.1566130473637176
0.2225705329153605,0.1500926000483131,0.3371338083927158,0.856328683225587,0.3563818453015128,0.1946672692351147,0.8361866007847697,0.8243812532912058,0.7560966810966812,0.6561744368557249,0.1564357071729144,0.1596067917783735
0.222346618898343,0.1430872050889765,0.3238321456848773,0.8602415787682887,0.3607500532708289,0.185063834594961,0.8363609940415637,0.8259610321221696,0.7599567099567099,0.6588894073728419,0.1562108509203045,0.1586237712243074
0.2098820719510374,0.1302842418874305,0.3250989707046715,0.8741068390609051,0.3514809290432559,0.1764772342108236,0.8343264060456329,0.8251448130595049,0.7595959595959596,0.6577016077716031,0.1526131508785455,0.153083109919571
0.2071204657411553,0.1241645865206538,0.318923198733175,0.8788703640694115,0.3514809290432559,0.1699243023387187,0.8360703386135736,0.8261716692996313,0.7613997113997113,0.6603741568743903,0.1498185088818219,0.1490169794459338
0.219137184654426,0.1404299863112972,0.3254156769596199,0.8633889077917659,0.3579799701683358,0.1837080555869392,0.8405464322046213,0.8320168509741969,0.7698051948051948,0.6703431892419294,0.153801676785198,0.1533065236818588
0.2248843110912076,0.1528303406071342,0.3376088677751386,0.853606668935012,0.3578734285105476,0.196813919331149,0.8448190669960761,0.8363085834649816,0.7763708513708513,0.6767064013914226,0.1567569303909286,0.1563002680965147
0.2225705329153605,0.1470327723649247,0.3311163895486936,0.8579448792106159,0.3585126784572768,0.1903739690430459,0.8440052317977038,0.8352290679304898,0.7769119769119769,0.6754337589615238,0.1540265330378079,0.152680965147453
0.2100313479623824,0.1338272002576697,0.3317498020585906,0.8721503912895543,0.349350095887492,0.1813354423229014,0.8414183984885918,0.8315955766192733,0.7718253968253969,0.6677130615534723,0.1488869615495808,0.1462019660411081
0.2086132258546051,0.1318946775102665,0.330799683293745,0.8739367131677442,0.3486043042829746,0.1796407185628742,0.8407208254614155,0.8319378620326487,0.772150072150072,0.6686887540830612,0.1477626802865311,0.1445040214477211
0.2201074787281684,0.1417988565907078,0.326049089469517,0.8621980265396393,0.3584061367994886,0.1849508530109592,0.8448771980816742,0.8365982095839914,0.7796897546897547,0.6783184151359608,0.1526452732003469,0.1499106344950849
0.2274220032840722,0.1473548594894919,0.3214568487727632,0.85505273902688,0.3652248028979331,0.1870975031069935,0.8499055369859032,0.8417324907846234,0.7858946608946608,0.6845119416281339,0.1563393402075102,0.1545576407506702
0.2209284967905657,0.1441339882438199,0.3288994457640538,0.8604117046614495,0.3579799701683358,0.1875494294430007,0.8492660950443249,0.8417061611374407,0.7856782106782106,0.683536249098545,0.1535446982107866,0.1515638963360143
0.2101059859680549,0.1346324180690876,0.3331749802058591,0.8716400136100715,0.3489239292563392,0.1823522765789176,0.8459235576224385,0.8390205371248025,0.783080808080808,0.6796334789801893,0.1462529311618643,0.1436103663985701
0.2077922077922077,0.1350350269747966,0.3388756927949327,0.8727458319156176,0.3453015128915406,0.1847248898429556,0.8460107542508356,0.8382569773565034,0.7836580086580086,0.6784881007932805,0.1439080016703607,0.1402591599642538
0.2160023884161815,0.1428456397455512,0.336658749010293,0.8638992854712488,0.3519070956744087,0.1894701163710315,0.8514460107542507,0.8429963138493943,0.7907287157287157,0.6845967844567938,0.1476663133211268,0.1438337801608579
0.216226302433199,0.1423625090587003,0.3353919239904988,0.8640694113644097,0.3525463456211378,0.1886792452830189,0.856910332800465,0.8486835176408636,0.7980158730158731,0.6928265388368049,0.1513282580064887,0.1482573726541555
0.212718316166592,0.1396247684998792,0.3374505146476643,0.8674719292276285,0.349350095887492,0.1874364478589989,0.8555151867461125,0.8492101105845181,0.7994588744588744,0.6949051881389726,0.1496257749510134,0.1465594280607685
0.2019704433497537,0.1316531121668411,0.3445764053840063,0.8778496087104457,0.3392286383976134,0.1843859450909502,0.854236302862956,0.8477619799894681,0.7985930735930735,0.6924023246935054,0.1445504481063891,0.139633601429848
0.1974175250037319,0.1284322409211692,0.347901821060966,0.8821027560394693,0.3348604304282974,0.1833691108349339,0.8540909751489609,0.8477356503422854,0.8002886002886002,0.6936325457090741,0.1416915614660627,0.1344504021447721
0.2087625018659501,0.1430872050889765,0.352652414885194,0.8678972439605309,0.3413594715533773,0.1953451587391255,0.8601947391367534,0.8541074249605056,0.8088023088023087,0.7029652568616638,0.1449359159680061,0.137444146559428
0.2126436781609195,0.1487237297689024,0.3555027711797308,0.8627934671657026,0.3431706797357767,0.2002033668512032,0.8654846679261735,0.8607161664033701,0.8186147186147186,0.7115343825563145,0.1485014936879637,0.1419571045576407
0.2037617554858934,0.1371285932844834,0.3515439429928741,0.8739367131677442,0.3381632218197314,0.1907129137950514,0.8666472896381341,0.8615850447604003,0.8203463203463203,0.7095829974971366,0.1447110597153962,0.1385612153708668
0.1950291088222122,0.1259360657057734,0.3480601741884403,0.8848247703300443,0.3330492222458981,0.1816743870749067,0.8641767185002179,0.8599789362822537,0.8192640692640693,0.7063165485937302,0.1390254087565449,0.1326184092940125
0.1973428869980594,0.1325388517594009,0.3561361836896279,0.8799761823749576,0.3319838056680161,0.1891311716190261,0.8666472896381341,0.8633491311216429,0.824025974025974,0.7115768039706445,0.1385435739295236,0.1314119749776586
0.2065233616957754,0.1461470327723649,0.3634204275534442,0.867556992174209,0.3361389303217558,0.2013331826912213,0.8724313326551373,0.8708004212743549,0.8336940836940836,0.7205277223942648,0.1397642221579775,0.1329311885612153
0.2065233616957754,0.1562122554150898,0.3832145684877277,0.8622830894862199,0.3294268058810995,0.2154558806914472,0.8781863101293417,0.8770668773038441,0.8428932178932178,0.7280363127306666,0.1402781793068002,0.134361036639857
0.1992088371398716,0.1544407762299702,0.395249406175772,0.867386866281048,0.3201576816535265,0.218506383459496,0.8793779973841012,0.8798841495523959,0.8476551226551227,0.7285029482882961,0.1353955863929845,0.129579982126899
0.1876399462606359,0.1395442467187374,0.3906571654790183,0.8818475671997278,0.3135520988706584,0.2064173539713027,0.8793489318413021,0.8805950500263298,0.8492784992784993,0.7271030416154075,0.1294529568597218,0.1211796246648793
0.1915211225556053,0.1404299863112972,0.384006334125099,0.8792106158557332,0.3184530151289154,0.2046096486272737,0.8820229617788112,0.8848077935755659,0.8559163059163059,0.7305815975904638,0.1282001863094664,0.1188114387846291
0.1954769368562471,0.1499315564860294,0.3942992874109264,0.871895202449813,0.3179203068399744,0.21500395435544,0.8894928062781572,0.8933122696155872,0.8666666666666666,0.741314215415942,0.1310911952715942,0.1222966934763181
0.2003284072249589,0.1548433851356792,0.3935075217735551,0.8665362368152434,0.321542723204773,0.2181674387074907,0.8958872256939399,0.90115850447604,0.8774170274170273,0.7507317693971917,0.1321191095692396,0.1241286863270777
0.1884609643230332,0.1498510347048876,0.4090261282660333,0.8758931609390951,0.3079053910078841,0.2202011072195232,0.8990844354018311,0.9051606108478146,0.8852453102453102,0.7548890680015272,0.127172272011821,0.1185880250223413
0.1786833855799373,0.1401884209678718,0.4107680126682502,0.8866110922082342,0.3003409333049222,0.2139871200994237,0.8996948118006104,0.9073986308583464,0.8876984126984127,0.7525983116277097,0.119366547814076,0.1090705987488829
0.1818928198238543,0.1462275545535067,0.4158353127474268,0.8815923783599865,0.3008736415938632,0.2200881256355213,0.90353146345008,0.9122432859399684,0.895995670995671,0.7572646672040046,0.1156082361633098,0.1045576407506702
0.1882370503060158,0.1598357355664707,0.4291369754552652,0.8707893841442668,0.3009801832516514,0.2343238052197492,0.9126289783461704,0.921669299631385,0.9097041847041848,0.7700335129173207,0.116764639748161,0.1063449508489723
0.186744290192566,0.1649891295595458,0.4422802850356295,0.8689179993194965,0.2955465587044534,0.242684442435883,0.9206801337014968,0.9314902580305424,0.9226911976911976,0.7809358164001188,0.116154315633934,0.1066130473637176
0.1733094491715181,0.1561317336339479,0.4536817102137768,0.8812521265736646,0.2821223098231408,0.2404248107558468,0.9253306205493388,0.9365718799368088,0.9295815295815296,0.7819963517583677,0.1092158941248273,0.1002234137622877
0.1589043140767278,0.152910862388276,0.4775930324623912,0.8912044913235795,0.263690603025783,0.246751779459948,0.92588286586252,0.9384676145339652,0.9332251082251082,0.7811479234717686,0.1010889467090681,0.0901251117068811
0.1561427078668458,0.1576616474756421,0.4929532858273951,0.8902687989111944,0.256552311953974,0.255564343012089,0.930678680424357,0.9436282253817798,0.9406204906204906,0.7860688075340432,0.0963027207606565,0.0847631814119749
0.1626362143603522,0.1719945245188823,0.5073634204275536,0.8789554270159919,0.2564457702961857,0.2707038752683313,0.940648161604418,0.9542127435492364,0.9544011544011544,0.7969286896025115,0.0960778645080466,0.0866398570151921
0.1636065084340946,0.1815766164747564,0.524148851939826,0.8733412725416809,0.2514383123801406,0.2834707942605355,0.9471007121057984,0.962006319115324,0.9663059163059162,0.8032070589233445,0.0930904885805146,0.0843163538873994
0.148081803254217,0.1693373057412029,0.5328582739509106,0.8886526029261654,0.237481355209887,0.277934696644447,0.9495712832437144,0.9633228014744604,0.9678932178932178,0.7987103890043694,0.0830040795348687,0.0736818588025022
0.1294969398417674,0.1604799098156051,0.5550277117973081,0.9038788703640694,0.2167057319411889,0.2797424019884758,0.9493968899869204,0.9620326487625066,0.9678932178932178,0.7939591905994147,0.071472166008159,0.0620643431635388
0.1262128675921779,0.1671632176503744,0.57513855898654,0.9022626743790406,0.2076496910291924,0.2914924867246638,0.9526231652376108,0.9657977883096366,0.9728715728715728,0.7948924617146735,0.0665253284507404,0.0571045576407506
0.1324078220629944,0.1790804412593606,0.5852731591448932,0.8924804355222865,0.2086085659492861,0.3034685346288555,0.9575643075134428,0.9723012111637704,0.980050505050505,0.8016798880074661,0.0703478847451093,0.0614834673815907
0.1344230482161516,0.1814960946936146,0.5859065716547902,0.890013610071453,0.2098870658427445,0.3053892215568862,0.960238337450952,0.974460242232754,0.9834054834054832,0.804691808424893,0.0718897561915775,0.0645218945487042
0.118898343036274,0.1697399146469119,0.5957244655581949,0.905069751616196,0.1953974003835499,0.3006439950288103,0.9597442232233688,0.9725118483412322,0.9807359307359308,0.7980740677894202,0.064276765924641,0.0575067024128686
0.1084490222421256,0.1626539979064337,0.6039588281868569,0.9147669275263696,0.1852759428936714,0.2986103265167777,0.9572155209998546,0.9691943127962084,0.9754329004329004,0.7901836847240488,0.0550897818894349,0.0479445933869526
0.1071801761456933,0.165713825589822,0.6126682501979415,0.9138312351139845,0.1814404432132964,0.3039204609648627,0.9569829966574626,0.9692996313849396,0.9770562770562772,0.7901412633097189,0.0508817577334489,0.0439678284182305
0.1115838184803702,0.1827844431918834,0.6370546318289788,0.902347737325621,0.176326443639463,0.3245960908371935,0.9614009591629122,0.9733280674038968,0.9838023088023088,0.7969711110168414,0.0510102470206546,0.0466934763181412
0.1122555605314225,0.192124969804332,0.653840063341251,0.8969887716910515,0.1712124440656296,0.3371370466613942,0.9625054497892748,0.974275934702475,0.9854256854256852,0.7987103890043694,0.0501750666538177,0.0470509383378016
0.1081504702194357,0.1895482728077945,0.6574821852731593,0.900731541340592,0.1669507777541018,0.3366851203253869,0.9598604853945648,0.9703264876250658,0.9804834054834056,0.7923471768548764,0.046448877324853,0.0434763181411975
0.1027765338110165,0.1864079233432643,0.6627078384798101,0.9054950663490984,0.1614106115491156,0.3362331939893797,0.9532626071791892,0.9630858346498156,0.9722222222222222,0.7819539303440377,0.0406668594005974,0.0384718498659517
0.1015076877145842,0.1934133183026008,0.6791765637371339,0.902517863218782,0.1549115704240358,0.3470794260535532,0.950239790728092,0.9595839915745128,0.969011544011544,0.7801722309421796,0.0407632263660017,0.0402144772117962
0.1115091804746977,0.207343586440132,0.6853523357086303,0.8894181694453897,0.1600255699978691,0.3590554739577448,0.9492806278157244,0.9577935755660876,0.9683621933621932,0.7839053154032156,0.0473483023352927,0.0489276139410187
0.122107777280191,0.2141074160560431,0.6761678543151228,0.8798060564817966,0.1706797357766886,0.3605242345497683,0.9449498619386716,0.9533701948393892,0.9652958152958152,0.7845840580324948,0.0540297452699881,0.0575513851653261
0.1150918047469771,0.2027538449150495,0.6687252573238323,0.8897584212317116,0.1682292776475602,0.3499039656535984,0.9366661822409532,0.9429963138493944,0.9515151515151514,0.7765664107241336,0.0556679836818605,0.0602323503127792
0.1102403343782654,0.194943232144295,0.6636579572446557,0.8966485199047296,0.1664180694651608,0.3426731442774827,0.9250399651213488,0.9303317535545024,0.9361832611832612,0.7670640139142241,0.057081365841123,0.0603217158176943
0.1206150171667413,0.2008213221676463,0.653206650831354,0.8877169105137803,0.1773918602173449,0.3430120890294882,0.9143147798285132,0.9189836756187466,0.9214285714285716,0.7599796377211218,0.0637628087758183,0.0672475424486148
0.1388266905508284,0.2157983734600209,0.6440221694378465,0.8694283769989793,0.1934796505433624,0.3502429104056039,0.9078912948699316,0.9106635071090048,0.9116522366522368,0.7603614304500913,0.0778323857248401,0.0827524575513851
0.1520376175548589,0.2250583782913278,0.6342042755344418,0.8569241238516503,0.2061581078201577,0.3532934131736527,0.9004505159133847,0.9014218009478674,0.9,0.7599372163067918,0.0919662073174649,0.0990616621983914
0.1545753097477235,0.2200660278605363,0.6190023752969122,0.8581150051037768,0.2130833155763903,0.3443678680375099,0.8870222351402411,0.8862559241706162,0.8797979797979798,0.7495015483816231,0.1006071118820468,0.1080428954423592
0.154649947753396,0.2112891537160801,0.6015835312747427,0.8627934671657026,0.2189431067547411,0.331939893797311,0.8715303008283679,0.8675882043180622,0.8538961038961038,0.7333389895219108,0.1052969708650541,0.1119749776586237
0.1706224809673085,0.2175698526451405,0.5800475059382424,0.8502892140183737,0.2376944385254634,0.3286634278612586,0.8610085743351257,0.8561611374407583,0.8367965367965368,0.72489712807025,0.1158330924159198,0.122207327971403
0.1868189281982385,0.2265077703518802,0.5631037212984957,0.8364239537257571,0.2548476454293629,0.3288893910292622,0.8540328440633629,0.8482885729331227,0.8257215007215006,0.7210367793662241,0.1299669140085445,0.1381143878462913
0.1939841767427974,0.2292455109107013,0.5534441805225654,0.8308097992514462,0.2632644363946303,0.3274206304372387,0.8471733759627962,0.8383096366508689,0.8122294372294372,0.7152674670173504,0.1416915614660627,0.1518319928507596
0.2006269592476489,0.2239310733553426,0.5290577988915282,0.829874106839061,0.27626251864479,0.3149926561970399,0.8364772562127598,0.8263296471827278,0.7944444444444444,0.7026258855470241,0.1479554142173396,0.1579088471849866
0.203090013434841,0.213382720025767,0.502929532858274,0.8340421912215039,0.2868101427658214,0.2981584001807705,0.8251126289783461,0.8137440758293839,0.7758658008658009,0.6888389258897892,0.1513603803282901,0.1607685433422699
0.2105538140020898,0.2108865448103712,0.4821852731591449,0.8310649880911877,0.2990624334114639,0.2890068918766241,0.8192413893329458,0.8061874670879411,0.7630952380952382,0.6815848640393671,0.1582024348719925,0.1677390527256479
0.2280937453351246,0.2219985506079394,0.466825019794141,0.8152432800272202,0.3167483486043043,0.2913795051406621,0.8177009155645981,0.8032385466034755,0.7587662337662338,0.6809485428244179,0.1690919019626738,0.1798480786416443
0.2348858038513211,0.226990901038731,0.4623911322248614,0.808693433140524,0.3230343064138078,0.2933001920686928,0.8167708181950297,0.80115850447604,0.7546536796536796,0.6802698001951385,0.1786001092158941,0.1910187667560321
0.2295118674429019,0.2157178516788791,0.4514647664291371,0.8177951684246344,0.3229277647560196,0.281437125748503,0.8104635954076442,0.7937862032648761,0.7428210678210678,0.6710643532855386,0.179820757444348,0.1915549597855227
0.2265263472160023,0.2039616716321765,0.4345209817893903,0.8256209595100374,0.3265501811208182,0.2672014461642751,0.8033134718790874,0.7852290679304897,0.73008658008658,0.6601196283884105,0.1783752529632842,0.1885612153708668
0.2393640841916703,0.2107255012480876,0.4207442596991291,0.8148179652943179,0.3402940549754953,0.2669754829962716,0.800058131085598,0.7820431806213797,0.7245670995670995,0.6565986509990244,0.1809129163855963,0.1902144772117962
0.2497387669801463,0.2218375070456558,0.4205859065716549,0.8029942157196326,0.347751971020669,0.2747712122923963,0.8020636535387298,0.7839652448657188,0.7252525252525253,0.6582106647435626,0.1867270566316533,0.1968722073279714
0.2519779071503209,0.2217569852645141,0.4158353127474268,0.8018033344675061,0.3509482207543149,0.2729635069483674,0.8040691759918617,0.7853343865192206,0.7262626262626263,0.6589318287871718,0.1906781022132279,0.2014745308310992
0.2427974324526048,0.2080682824704083,0.408234362628662,0.8142225246682546,0.3470061794161517,0.2606485142921703,0.8002034587995931,0.781621906266456,0.7208513708513709,0.653247359266958,0.1893610870193697,0.1992850759606791
0.2334676817435438,0.1944601014574442,0.4012668250197941,0.8267267778155836,0.3426379714468357,0.2486724663879787,0.7955820374945501,0.7758557135334386,0.7131673881673882,0.6445509693293175,0.1848639619671709,0.1923592493297587
0.241603224361845,0.2003381914807955,0.3955661124307206,0.8189860496767608,0.350415512465374,0.2508191164840131,0.7956982996657462,0.7761716692996313,0.7124819624819625,0.6437873838713783,0.1850888182197809,0.1926720285969615
0.248320644872369,0.2111281101537966,0.4025336500395883,0.8094589996597483,0.3527594289367142,0.2607614958761721,0.8000871966283971,0.7804370721432333,0.7182178932178932,0.650532388749841,0.1897786772027882,0.199597855227882
0.2495894909688013,0.2124164586520653,0.402375296912114,0.8080979925144608,0.3538248455145962,0.2616653485481866,0.8012207527975584,0.7828593996840442,0.7207070707070706,0.6549442158401562,0.1929587870611288,0.2026362823949955
0.2464546947305568,0.2031564538207585,0.3908155186064926,0.8147329023477373,0.3554229703814191,0.2510450796520166,0.7980816741752652,0.7805160610847814,0.7178210678210677,0.6511687099647903,0.1912884263274549,0.199597855227882
0.2398119122257053,0.189709316370078,0.3783056215360254,0.8256209595100374,0.3548902620924781,0.2371483448197943,0.7952623165237611,0.7769615587151132,0.713095238095238,0.6447206549866373,0.1864058334136391,0.1925379803395889
0.2354829078967009,0.1906755777437797,0.3893903404592241,0.8275774072813883,0.3480715959940336,0.2417805897638685,0.7962796105217265,0.7785413375460768,0.713924963924964,0.6464175115598355,0.186855545918859,0.1927167113494191
0.2465293327362293,0.2023512360093405,0.3890736342042755,0.8150731541340593,0.3560622203281482,0.2499152638119986,0.8004069175991863,0.7836229594523434,0.7206709956709957,0.6541382089678871,0.191673894189072,0.1972743521000894
0.2498880429914912,0.2019486271036315,0.3809976247030879,0.81337189520245,0.3611762199019816,0.2466387978759462,0.8027321610231071,0.7857556608741443,0.7255050505050504,0.6595681500021211,0.1938903343933699,0.2000446827524575
0.2434691745036572,0.1947016668008696,0.3805225653206651,0.8209424974481117,0.3567014702748775,0.241441645011863,0.7987501816596425,0.7833333333333333,0.7222222222222222,0.6560471726127349,0.1902605120298095,0.1951295799821269
0.2360800119420809,0.1865689669055479,0.3802058590657166,0.8293637291595781,0.3515874707010441,0.2356795842277708,0.7953495131521582,0.7792785676671932,0.7167027417027416,0.6498536461205617,0.1846712280363624,0.1873994638069705
0.2404090162710852,0.1916418391174813,0.3809976247030879,0.82425995236475,0.3543575538035372,0.2394079764998305,0.7960470861793344,0.7803844128488678,0.7175685425685425,0.649599117634582,0.1845748610709582,0.1868185880250223
0.2484699208837139,0.201787583541348,0.384006334125099,0.814307587614835,0.3591519284040059,0.2476556321319625,0.799941868914402,0.7849394418114797,0.7234487734487733,0.6557502227124253,0.1879798271819087,0.1920911528150134
0.2491416629347663,0.2013849746356389,0.3816310372129849,0.8141374617216741,0.3604304282974642,0.2465258162919443,0.8021799157099259,0.7872037914691944,0.725937950937951,0.6587197217155221,0.1893289646975683,0.1934763181411975
0.2460068666965218,0.191319751992914,0.3684877276326208,0.8211976862878531,0.3626678031110164,0.2347757315557563,0.800058131085598,0.7845971563981042,0.7227994227994228,0.6548169515971664,0.1868234235970576,0.1892314566577301
0.2428720704582773,0.1819792253804654,0.3567695961995249,0.8279176590677102,0.3642659279778393,0.2240424810755847,0.795320447609359,0.7806740389678778,0.7177128427128426,0.6493870105629322,0.1830972342680929,0.1845397676496872
0.244961934617107,0.1839117481278686,0.3561361836896279,0.8257910854031983,0.3659705945024504,0.2251722969156027,0.7947391367533789,0.7809636650868879,0.7172438672438672,0.649556696220252,0.1824226655102631,0.1851206434316354
0.2491416629347663,0.194138014332877,0.3673792557403009,0.8179652943177952,0.3652248028979331,0.2363574737317817,0.7989245749164365,0.7845971563981042,0.7212481962481962,0.6540533661392272,0.185859753943015,0.1898123324396783
0.254739513360203,0.2008213221676463,0.3686460807600951,0.8112453215379382,0.3688472192627317,0.241441645011863,0.800116262171196,0.7850447604002107,0.7228715728715729,0.6573198150426336,0.1880440718255115,0.1934316353887399
0.2480967308553515,0.1912392302117723,0.363895486935867,0.820091867982307,0.3656509695290859,0.2330810077957293,0.7974131666908879,0.7822801474460241,0.7183982683982684,0.6518898740083995,0.1847354726799653,0.1886952636282395
0.241901776384535,0.1852806184072792,0.3653206650831354,0.8267267778155836,0.3607500532708289,0.2293526155236696,0.7934021217846243,0.7786993154291733,0.7137806637806638,0.645908454587876,0.1812662619254119,0.1829311885612153
0.2452604866397969,0.1899508817135035,0.3673792557403009,0.8223885675399796,0.36245471979544,0.2334199525477347,0.7927917453858451,0.7775934702474987,0.7118686868686869,0.6451448691299368,0.1808165494201921,0.1829311885612153
0.2528735632183908,0.2030759320396167,0.376880443388757,0.8110751956447773,0.3646920946089921,0.2459609083719353,0.7961052172649324,0.7813059505002633,0.717099567099567,0.6500657531922115,0.1849924512543767,0.1885165326184093
0.2500373190028362,0.2005797568242209,0.3781472684085512,0.8140523987750936,0.3622416364798636,0.2447181109479155,0.7972969045196918,0.7826750921537651,0.7183621933621933,0.6482840537903534,0.1864700780572419,0.1907953529937444
0.2422749664128974,0.1888235767775183,0.3714964370546318,0.8246852670976523,0.3589388450884295,0.2340978420517455,0.795029792181369,0.779015271195366,0.713023088023088,0.6403088278963222,0.1829366226590858,0.1862823949955317
0.2407822062994476,0.183750704565585,0.3646872525732384,0.8281728479074516,0.3602173449818879,0.2281098180996497,0.7903793053335271,0.7750658241179568,0.7075757575757575,0.6336910872608493,0.1787928431467026,0.1798927613941018
0.2433945364979847,0.1864884451244061,0.3645288994457641,0.8252807077237156,0.3621350948220754,0.2300305050276805,0.7906990263043162,0.7749605055292259,0.7067099567099566,0.6335638230178594,0.1787928431467026,0.1795352993744414
0.2474996268099716,0.1970367984539818,0.3765637371338084,0.8173698536917319,0.3609631365864053,0.2416676081798666,0.7946519401249819,0.778436018957346,0.7117965367965366,0.6392907139524032,0.1835148244515113,0.1862377122430741
0.2520525451559934,0.200177147918512,0.3730799683293744,0.8131167063627085,0.3653313445557212,0.242684442435883,0.7960761517221333,0.7803317535545023,0.7137085137085136,0.6414966274975609,0.1866949343098519,0.1906166219839142
0.2440662785490371,0.1896287945889363,0.3691211401425178,0.8232391970057843,0.3610696782441934,0.2337588972997401,0.7915709925882866,0.7769088994207477,0.7075396825396826,0.6355576294913673,0.1836111914169156,0.1872207327971403
0.2408568443051201,0.1860858362186971,0.3692794932699921,0.826981966655325,0.358619220115065,0.2313862840357022,0.7882575207091992,0.7737756714060031,0.7022005772005772,0.6300852670428033,0.1803347145931708,0.1827971403038427
0.2452604866397969,0.1909976648683469,0.3694378463974664,0.8218781898604969,0.3618154698487108,0.2348887131397582,0.787530882139224,0.772722485518694,0.7011183261183261,0.6288126246129047,0.1791461886865182,0.1806523681858802
0.2528735632183908,0.2002576696996537,0.3714964370546318,0.8126063286832256,0.3665033027913914,0.2421195345158738,0.7907862229327133,0.775434439178515,0.7049422799422799,0.635006151105078,0.1820693199704474,0.1842716711349419
0.2489923869234214,0.2024317577904823,0.384006334125099,0.8136270840421913,0.3594715533773706,0.2481075584679697,0.7941868914401976,0.7784886782517114,0.708080808080808,0.6383150214228143,0.1850888182197809,0.1881590705987489
0.2395879982086878,0.1918834044609066,0.3830562153602534,0.8246002041510718,0.3530790539100788,0.240311829171845,0.7909896817323063,0.7740652975250131,0.7023809523809524,0.6310185381580623,0.1811377726382063,0.183467381590706
0.2393640841916703,0.1828649649730252,0.3659540775930324,0.8294487921061585,0.3587257617728532,0.2279968365156479,0.7868914401976457,0.7704581358609794,0.6966810966810966,0.6244856403512494,0.1781182743888728,0.179177837354781
0.2425735184355874,0.1854416619695628,0.3642121931908155,0.8263014630826813,0.3616023865331344,0.229126652355666,0.7868623746548467,0.7708530805687203,0.6966810966810966,0.6256310185381581,0.1805595708457807,0.1837354781054513
0.2506344230482161,0.1947016668008696,0.3653206650831354,0.8168594760122492,0.3669294694225442,0.2360185289797763,0.7910187472751053,0.7757767245918905,0.7015151515151515,0.6308488525007424,0.1862773441264335,0.192225201072386
0.2495148529631288,0.1951847974877204,0.3686460807600951,0.8171997277985711,0.3651182612401449,0.2376002711558015,0.7930824008138352,0.777567140600316,0.7047979797979798,0.6342001442328088,0.1883974173653272,0.1940571939231456
0.2433945364979847,0.1895482728077945,0.3707046714172605,0.8236645117386867,0.3600042616663115,0.2343238052197492,0.7891585525359686,0.7737230121116376,0.6998556998556998,0.627539982183006,0.1832578458771,0.1871760500446827
0.2399611882370503,0.180932442225622,0.3608867775138559,0.8302143586253828,0.3608565949286171,0.2247203705795955,0.7854381630576951,0.7697998946814113,0.6937590187590188,0.620285920332584,0.1786001092158941,0.1804289544235925
0.2438423645320196,0.1814155729124728,0.3536025336500396,0.8276624702279687,0.3660771361602386,0.2225737204835612,0.7858160151140823,0.7701948393891522,0.6934704184704185,0.6204556059899038,0.1791783110083196,0.1808310991957104
0.2506344230482161,0.1922054915854739,0.3604117181314332,0.8181354202109562,0.3686341359471553,0.2325160998757202,0.7888969626507776,0.7737230121116376,0.6985569985569985,0.6272006108683664,0.1841893932093411,0.1872207327971403
0.2519779071503209,0.1954263628311458,0.3640538400633412,0.8156685947601225,0.3684210526315789,0.2360185289797763,0.7897689289347478,0.7752501316482359,0.6997835497835497,0.6277945106689857,0.1856670200122065,0.1906613047363717
0.2484699208837139,0.1892261856832273,0.3593032462391133,0.8209424974481117,0.3674621777114851,0.2300305050276805,0.7871820956256358,0.7725908372827804,0.6969336219336218,0.6235523692359903,0.1832257235552986,0.1869973190348525
0.2442901925660546,0.1791609630405025,0.3482185273159144,0.8286832255869344,0.3682079693160025,0.2190712913795051,0.7841011480889405,0.7690626645602948,0.6923160173160172,0.6180375853730964,0.1796280235135395,0.1816800714924039
0.2500373190028362,0.183348095659876,0.3442596991290578,0.8231541340592039,0.3736415938632004,0.2205400519715286,0.785176573172504,0.7697735650342284,0.6930735930735931,0.6204131845755738,0.1812983842472134,0.1833333333333333
0.2522018211673384,0.1947016668008696,0.3619952494061758,0.815923783599864,0.3692733858938845,0.2348887131397582,0.7896817323063509,0.7738283307003686,0.6992063492063492,0.6271157680397065,0.1856027753686036,0.1895442359249329
0.2509329750709061,0.1951042757065786,0.3654790182106097,0.8164341612793469,0.3671425527381206,0.2363574737317817,0.7913384682458945,0.7751711427066877,0.7006854256854256,0.6283459890552752,0.1867270566316533,0.1920464700625558
0.2452604866397969,0.1847974877204284,0.3572446555819478,0.8251105818305547,0.3658640528446622,0.226189131171619,0.7864263915128615,0.7714849921011059,0.6950937950937951,0.6225766767064015,0.1825190324756673,0.1861930294906166
0.2392148081803254,0.1781141798856591,0.3569279493269992,0.8320857434501531,0.3617089281909226,0.221443904643543,0.782880395291382,0.7670616113744075,0.6893217893217893,0.6160013574852586,0.1773473386656387,0.1791331546023235
0.2422749664128974,0.1826233996295998,0.359144893111639,0.8280027220142906,0.3630939697421692,0.2252852784996045,0.782444412149397,0.7683517640863612,0.6906926406926407,0.6179951639587664,0.1786001092158941,0.18047363717605
0.2495894909688013,0.1927691440534664,0.3637371338083927,0.8183906090506975,0.3667163861069678,0.2340978420517455,0.7872983577968319,0.7723802001053186,0.6960678210678211,0.6241038476222798,0.1835469467733128,0.1863717605004468
0.2495148529631288,0.1952653192688622,0.3688044338875694,0.8171146648519906,0.3650117195823567,0.2376002711558015,0.7896526667635518,0.7738283307003686,0.6978715728715729,0.6268188181393968,0.1859561209084192,0.1894548704200178
0.2405582922824302,0.1822207907238908,0.3623119556611243,0.8291936032664172,0.3607500532708289,0.226189131171619,0.7861938671704694,0.7704318062137967,0.6927849927849927,0.6217706698341323,0.1821978092576531,0.1848078641644325
0.2361546499477534,0.1740075690474273,0.3553444180522566,0.8359986389928548,0.3600042616663115,0.217941475539487,0.7830838540909751,0.7672459189046866,0.6885281385281384,0.6163407287998982,0.1784716199286884,0.1797140303842717
0.2410061203164651,0.1819792253804654,0.3605700712589073,0.8290234773732562,0.3617089281909226,0.2253982600836063,0.7842174102601366,0.7677198525539758,0.6887806637806637,0.6166376787002079,0.1798850020879509,0.1808310991957104
0.2516047171219585,0.194540623238586,0.3629453681710213,0.8163490983327663,0.3684210526315789,0.23500169472376,0.7873564888824299,0.7715903106898367,0.694047619047619,0.6234675264073305,0.185024573576178,0.1876675603217158
0.251679355127631,0.1947016668008696,0.3631037212984956,0.8161789724396054,0.3684210526315789,0.2352276578917636,0.7885772416799884,0.7735650342285413,0.6961038961038961,0.6254613328808384,0.1866628119880505,0.1903485254691689
0.238543066129273,0.1839117481278686,0.3697545526524149,0.8293637291595781,0.3568080119326656,0.2300305050276805,0.7847987211161168,0.7686150605581885,0.6906204906204906,0.6179527425444366,0.1814589958562204,0.1835120643431635
0.2316763696074041,0.1779531363233755,0.3726049089469517,0.8364239537257571,0.3510547624121031,0.2268670206756298,0.7818921668362157,0.7644549763033176,0.6858225108225108,0.6116319518092733,0.177443705631043,0.1781054512957998
0.2365278399761158,0.1818181818181818,0.3699129057798891,0.8316604287172509,0.3554229703814191,0.2286747260196588,0.782793198662985,0.7655081621906267,0.6876262626262627,0.6133712297968015,0.1792746779737239,0.1803395889186773
0.2470517987759367,0.191319751992914,0.3664291369754553,0.8206873086083702,0.3640528446622629,0.2340978420517455,0.7876762098532191,0.7703264876250658,0.6929292929292928,0.6195647562889748,0.1840609039221355,0.1868632707774798
0.2468278847589192,0.1943795796763024,0.372763262074426,0.8191561755699218,0.3618154698487108,0.2383911422438142,0.7895364045923557,0.7730647709320695,0.6960317460317459,0.6224069910490816,0.185249429828788,0.1897229669347631
0.2410807583221376,0.1866494886866897,0.3695961995249406,0.8265566519224227,0.3587257617728532,0.2319511919557112,0.7859032117424792,0.768957345971564,0.6913419913419914,0.6182072710304162,0.1817802190742347,0.1847631814119749
0.2374234960441857,0.1802077461953458,0.3646872525732384,0.8320006805035727,0.3577668868527594,0.22562422325161,0.7826769364917889,0.7653238546603476,0.686976911976912,0.6133288083824715,0.1781503967106742,0.1804289544235925
0.241304672339155,0.1836701827844432,0.3634204275534442,0.8280027220142906,0.3609631365864053,0.2275449101796407,0.7846533934021218,0.767509215376514,0.6884559884559884,0.6151953506129895,0.179435289582731,0.1821715817694369
0.2474249888042991,0.1917223608986231,0.366270783847981,0.8201769309288874,0.3643724696356275,0.2343238052197492,0.7885191105943903,0.771090047393365,0.6928210678210678,0.6194799134603148,0.1839002923131284,0.1877122430741733
0.2454844006568144,0.1914807955551976,0.3699129057798891,0.8214528751275944,0.3618154698487108,0.2353406394757654,0.7903211742479291,0.7722485518694049,0.6952741702741702,0.622067619734442,0.1868876682406604,0.1906613047363717
0.2408568443051201,0.1856832273129881,0.3683293745051465,0.827152092548486,0.3590453867462177,0.2307083945316913,0.7871820956256358,0.7692996313849395,0.6902236652236652,0.6179103211301066,0.1841251485657383,0.1861036639857015
0.2348858038513211,0.178919397697077,0.3676959619952495,0.8341272541680845,0.3549968037502663,0.2257372048356118,0.7837523615753524,0.7651395471300685,0.6840909090909091,0.6106562592796845,0.1786001092158941,0.1800714924039321
0.2435438125093297,0.1889040985586601,0.3689627870150435,0.8239197005784281,0.3606435116130407,0.2333069709637328,0.7838976892893474,0.7663243812532912,0.6861832611832611,0.612904594239172,0.1796922681571424,0.1814119749776586
0.2510076130765785,0.1963926242048474,0.3680126682501979,0.8156685947601225,0.3663967611336032,0.2381651790758106,0.7885481761371893,0.7703001579778831,0.6922077922077922,0.6197344419462946,0.1844463717837525,0.1881143878462913
0.2467532467532467,0.193735405427168,0.3716547901821062,0.8195814903028241,0.3621350948220754,0.2376002711558015,0.7897398633919488,0.7720642443391258,0.6946969696969697,0.6218979340771222,0.1865985673444476,0.1905272564789991
0.2363039259590983,0.184153313471294,0.3749802058590658,0.8305546104117048,0.3535052205412315,0.232064173539713,0.7868333091120476,0.7689310163243813,0.6902958152958152,0.6174861069868071,0.1833220905207028,0.1848972296693476
0.2304821615166442,0.1802077461953458,0.3797307996832937,0.8359986389928548,0.347751971020669,0.2310473392836967,0.7840720825461416,0.7648762506582412,0.6861471861471861,0.612819751410512,0.1797886351225466,0.179177837354781
0.2407075682937751,0.1917223608986231,0.3805225653206651,0.8240898264715891,0.3547837204346899,0.2392949949158287,0.7861357360848714,0.7669299631384939,0.69004329004329,0.6171043142578374,0.1826796440846744,0.1835120643431635
0.2488431109120764,0.2060552379418632,0.3912905779889153,0.8118407621640015,0.3569145535904538,0.253191729748051,0.7923848277866589,0.7722222222222223,0.6960678210678211,0.6252492258091885,0.1882046834345186,0.1915102770330652
0.247723540826989,0.2145100249617521,0.4104513064133018,0.8080129295678803,0.3497762625186447,0.2659586487402553,0.7991570992588287,0.7765402843601895,0.7022005772005772,0.6305519026004327,0.1918987504416819,0.1950848972296693
0.244961934617107,0.2158788952411627,0.4190023752969121,0.808863559033685,0.3448753462603878,0.2700259857643204,0.7989827060020346,0.775618746708794,0.7,0.6280914605692954,0.1882689280781214,0.1897676496872207
0.2431706224809673,0.2154762863354538,0.4221694378463975,0.8100544402858115,0.3425314297890475,0.2709298384363348,0.797558494404883,0.7731437598736177,0.6972582972582972,0.6246553260085691,0.184639105714561,0.1844057193923146
0.2497387669801463,0.2271519446010145,0.4310372129849565,0.8001871384824771,0.3442360963136586,0.2822279968365156,0.8014532771399505,0.7759610321221696,0.7020562770562769,0.629406524413524,0.1885259066525328,0.188337801608579
0.2627257799671592,0.2429342137048071,0.4345209817893903,0.7844504933650903,0.3523332623055614,0.2945429894927126,0.8060456329021944,0.7807266982622433,0.7082611832611833,0.6382726000084843,0.1937618451061643,0.1957998212689901
0.2655620241827138,0.2472823898864642,0.4368962787015044,0.7805375978223886,0.3536117621990198,0.2983843633487741,0.8066850748437727,0.7814112690889942,0.7104978354978355,0.6403936707249821,0.1959461629886608,0.1992403932082216
0.2637707120465741,0.2468797809807553,0.4400633412509898,0.7818135420210958,0.3511613040698913,0.2992882160207886,0.80264496439471,0.7790679304897314,0.7084776334776335,0.6377635430365248,0.1948540040474125,0.1981680071492403
0.2632482460068667,0.2526773492229648,0.4525732383214569,0.7790064647839401,0.3466865544427871,0.3077618348209241,0.7955820374945501,0.7753291205897841,0.7052308802308802,0.635897000806007,0.1937618451061643,0.1971403038427167
0.2719062546648753,0.2687011836701827,0.4658749010292954,0.7656515821708065,0.34828467930961,0.3238052197491809,0.7876180787676209,0.773222748815166,0.7053751803751803,0.639460399609723,0.1963637531720793,0.20218945487042
0.2842215256008359,0.2902004992350431,0.4818685669041965,0.7472779857094252,0.3516940123588323,0.3445938312055135,0.7808458072954513,0.772432859399684,0.708080808080808,0.645908454587876,0.203077318428576,0.2119749776586237
0.2886998059411852,0.29543441500926,0.4826603325415678,0.7419190200748556,0.3546771787769017,0.3485481866455767,0.7755849440488302,0.7707477619799895,0.7074314574314573,0.6469689899461248,0.2065144068613279,0.216130473637176
0.2786236751753993,0.2818262339962959,0.4774346793349169,0.7548485879550868,0.3492435542297037,0.3371370466613942,0.7668943467519256,0.7634544497103739,0.6981601731601731,0.6369575361642558,0.2013105907294979,0.2098748882931188
0.2716077026421853,0.2666881391416378,0.4623911322248614,0.7668424634229329,0.3492435542297037,0.3212066433171393,0.7570701932858596,0.7557661927330174,0.6851370851370852,0.6226615195350614,0.1941794352895827,0.2027703306523681
0.2789222271980892,0.2663660520170706,0.4462391132224862,0.762844504933651,0.3600042616663115,0.3151056377810416,0.7522743787240227,0.7522380200105319,0.6805194805194804,0.617443685572477,0.193055154026533,0.203976764968722
0.2890729959695476,0.2801352765923182,0.4519398258115598,0.7498298741068391,0.3652248028979331,0.3268557225172297,0.7509954948408661,0.7523433385992627,0.6807359307359307,0.6189708564883554,0.1971346888953133,0.2107238605898123
0.2916106881624123,0.2886705853933489,0.4631828978622329,0.7438754678462062,0.3633070530577456,0.3367981019093887,0.7499782008429008,0.7529225908372827,0.6813492063492064,0.6198617061892845,0.2001220648228454,0.2155942806076854
0.2945215703836393,0.2898784121104759,0.4595407759303246,0.7415787682885335,0.3666098444491796,0.3363461755733815,0.7489318413021363,0.7512374934175882,0.6790043290043289,0.617443685572477,0.1986444380199801,0.2149687220732797
0.2986266606956262,0.2871406715516547,0.4452889944576406,0.7406430758761484,0.3742808438099296,0.3294542989492712,0.7486993169597442,0.7495787256450764,0.6764069264069263,0.6152377720273194,0.1968455879991005,0.2138963360142984
0.3102701895805344,0.2757871004106611,0.398258115597783,0.7400476352500851,0.3984658001278499,0.3045983504688735,0.7534079348931841,0.753001579778831,0.6795815295815295,0.6180375853730964,0.1995438630304198,0.2175603217158176
0.3178832661591282,0.2748208390369595,0.3802058590657166,0.7362198026539639,0.409972299168975,0.2975934922607615,0.7612846969917164,0.7591890468667719,0.6868326118326118,0.6244007975225895,0.2043943336224342,0.222609472743521
0.3113151216599492,0.2704726628553023,0.3855898653998417,0.7422592718611775,0.4034732580438951,0.2963506948367416,0.7646562999564017,0.7615323854660347,0.6884920634920635,0.6260976540957877,0.2055186148854839,0.2226988382484361
0.3013882669055083,0.2575086560914728,0.3811559778305622,0.7547635250085063,0.397933091838909,0.2857304259405716,0.763057695102456,0.7599789362822539,0.6873015873015872,0.6241038476222798,0.2023385050271433,0.2172922252010724
0.2917599641737572,0.2392302117722843,0.365637371338084,0.7699047294998299,0.3962284253142979,0.2674274093322788,0.7649178898415928,0.7609004739336493,0.6868686868686869,0.6224918338777415,0.1987408049853843,0.211349419124218
0.2948947604120017,0.2236089862307754,0.3282660332541568,0.776284450493365,0.411037715746857,0.2431363687718901,0.7690161313762535,0.7651922064244339,0.6901154401154401,0.6237220548933102,0.1980019915839517,0.2089812332439678
0.2913867741453949,0.2143489813994686,0.3174980205859066,0.7832596121129637,0.4122096739825271,0.2327420630437238,0.777590466501962,0.7725118483412322,0.6992063492063492,0.6300004242141434,0.199479618386817,0.2088471849865951
0.2674279743245261,0.1952653192688622,0.330799683293745,0.8069071112623342,0.3905817174515235,0.2240424810755847,0.7812236593518385,0.7718272775144813,0.6965367965367965,0.6243159546939295,0.1929266647393273,0.2007596067917784
0.2398865502313778,0.1740075690474273,0.3472684085510688,0.833872065328343,0.3653313445557212,0.21500395435544,0.7785786949571283,0.7663770405476567,0.6873376623376624,0.613795443940101,0.1824226655102631,0.186550491510277
0.2305567995223167,0.1634592157178516,0.3464766429136975,0.8447601224906431,0.3590453867462177,0.2073212066433171,0.7772126144455748,0.7644549763033176,0.6832611832611831,0.6074746532049379,0.176833381516816,0.1781501340482573
0.2343633378116136,0.1657943473709638,0.3429928741092636,0.8413576046274244,0.3628808864265928,0.2077731329793243,0.7790146780991135,0.7663770405476567,0.6847402597402598,0.6084927671488568,0.1766085252642061,0.1796693476318141
0.2468278847589192,0.1778726145422337,0.3403008709422011,0.8279176590677102,0.3726827189431068,0.2152299175234437,0.7837232960325534,0.7709583991574512,0.6911616161616161,0.6163407287998982,0.1821978092576531,0.1867292225201072
0.2457829526795044,0.1780336581045173,0.3428345209817894,0.8284280367471929,0.3710845940762838,0.2163597333634617,0.7848568522017149,0.7723538704581359,0.6924242424242424,0.6183769566877361,0.1836111914169156,0.1884718498659517
0.2354082698910284,0.1653917384652548,0.3398258115597783,0.840932289894522,0.3646920946089921,0.2063043723873008,0.7818340357506177,0.7685097419694575,0.687049062049062,0.6117167946379333,0.1791783110083196,0.1820375335120643
0.2317510076130765,0.1608825187213141,0.3388756927949327,0.8454406260632868,0.3623481781376518,0.2028019432832448,0.7791600058131085,0.7654818325434438,0.6831529581529581,0.6066262249183388,0.1747133082779223,0.1764075067024128
0.2387669801462905,0.168934696835494,0.3398258115597783,0.8371895202449814,0.3670360110803324,0.2087899672353406,0.7807586106670542,0.7669299631384939,0.6857864357864357,0.6096805667500955,0.1775400725964472,0.1789097408400357
0.2466039707419017,0.1773089620742411,0.3396674584323041,0.828257910854032,0.3727892606008949,0.2146650096034346,0.7850021799157099,0.7726698262243286,0.6932900432900432,0.6181648496160863,0.1832899681989014,0.1859249329758713
0.241603224361845,0.1740075690474273,0.343784639746635,0.8328513099693774,0.3677818026848498,0.213874138515422,0.7870658334544398,0.7736703528172723,0.6944805194805195,0.6202010775039241,0.1848318396453696,0.1876228775692582
0.2347365278399761,0.1648280859972622,0.3403008709422011,0.8416978564137463,0.3640528446622629,0.206191390803299,0.7847696555733179,0.7703791469194313,0.6900793650793651,0.6149408221270097,0.1809450387073977,0.1820375335120643
0.2347365278399761,0.1638618246235607,0.3384006334125099,0.8421231711466485,0.3646920946089921,0.2048356117952773,0.7824734776921959,0.7682991047919957,0.6870851370851371,0.611886480295253,0.1784716199286884,0.1785522788203753
0.2431706224809673,0.1730413076737257,0.3385589865399842,0.8325110581830556,0.370658427445131,0.2112755620833803,0.782444412149397,0.7694576092680359,0.6910173160173161,0.6163407287998982,0.1826153994410716,0.1824843610366398
0.2505597850425436,0.1851195748449955,0.3466349960411718,0.8218781898604969,0.3732154272320477,0.222686702067563,0.7835779683185583,0.7728541337546077,0.699062049062049,0.6268612395537267,0.1897786772027882,0.1900804289544236
0.2501865950141812,0.1814960946936146,0.3403008709422011,0.8240047635250085,0.3751331770722352,0.2178284939554852,0.7814271181514315,0.7752238020010532,0.7095959595959596,0.6400118779960124,0.19344062188815,0.1917336907953529
0.2485445588893864,0.1693373057412029,0.3198733174980206,0.8314052398775094,0.3807798849350096,0.2020110721952322,0.7760790582764133,0.7764612954186414,0.7174603174603174,0.6479022610613839,0.1912241816838521,0.1860589812332439
0.2469025227645917,0.1649086077784041,0.3146476642913698,0.8346376318475672,0.3814191348817387,0.1970398824991526,0.772765586397326,0.7749341758820432,0.7163059163059162,0.6466296186314853,0.1882046834345186,0.1816800714924039
0.2553366174055829,0.1720750463000241,0.3110055423594615,0.8261313371895204,0.3885574259535478,0.2007682747712122,0.7734631594245023,0.7775934702474987,0.722979797979798,0.6556653798837654,0.1920272397288876,0.1859249329758713
0.2792207792207792,0.1850390530638537,0.2856690419635788,0.8056311670636271,0.4142339654805028,0.2008812563552141,0.7686964104054643,0.782490784623486,0.745021645021645,0.6960081449115514,0.20927692653625,0.2003127792672028
0.3038513210927004,0.2055721072550124,0.2737925574030087,0.78079278666213,0.4357553803537183,0.210936617331375,0.7475366952477838,0.7662190626645603,0.7549783549783549,0.7542951682009078,0.2430053644277408,0.2256032171581769
0.3157934020002986,0.2456719542636283,0.3273159144893112,0.7528070772371556,0.4262731728105689,0.2582759010281323,0.7012934166545559,0.70202738283307,0.7161976911976912,0.8011708310355068,0.2873341685137002,0.259159964253798
0.3429616360650843,0.3275626056848378,0.430720506730008,0.6940285811500511,0.4108246324312806,0.3526155236696419,0.6291818049702078,0.6,0.6433261183261183,0.8539006490476394,0.3545983103658732,0.3148346738159071
0.4147633975220182,0.4485868427409615,0.5163895486935868,0.5891459680163321,0.4333049222245898,0.4679697209354874,0.5373056241825316,0.4981832543443918,0.5749278499278498,0.9300895091842364,0.4593170794385018,0.4082216264521894
0.4954470816539781,0.5731540381673244,0.5901821060965955,0.4774583191561756,0.4660132111655657,0.5817421760253078,0.4447318703676791,0.4041337546076882,0.4862554112554113,0.968820260467484,0.5688863191031448,0.5146112600536192
0.5835199283475145,0.7049681938964489,0.6625494853523358,0.3576046274242939,0.5045812912848924,0.7000338944752006,0.3304170905391658,0.2962875197472354,0.3712842712842712,0.9813769991091504,0.6919148116025826,0.6362377122430742
0.6898044484251381,0.82631451807714,0.6758511480601742,0.2329023477373257,0.5759642020029831,0.7899672353406395,0.2062200261589884,0.1921800947867298,0.2626623376623377,0.9965214440249438,0.8333815168160355,0.7725201072386059
0.7884012539184954,0.9014413398824382,0.6142517814726842,0.1371214698877169,0.6670573194118901,0.8205852446051292,0.1195756430751344,0.1325961032122169,0.1816378066378066,0.9655962329784076,0.9283351000610324,0.8761394101876676
0.864308105687416,0.903856993316692,0.4579572446555821,0.0925484858795509,0.7738120605156616,0.7665800474522652,0.1101584072082545,0.1511058451816745,0.1639610389610389,0.878123276630043,0.9342456072724936,0.9150134048257372
0.8504254366323333,0.8363797407198648,0.3547110055423594,0.1361007145287513,0.7986362667803111,0.6824087673709184,0.1608196483069321,0.1887572406529752,0.1187229437229436,0.6510414457218004,0.8270855417429572,0.8750670241286863
0.7901925660546351,0.7566631773894839,0.3257323832145685,0.2125723035045933,0.7653952695503942,0.6160885775618574,0.2238918761807876,0.2252238020010531,0.0614357864357864,0.3840410639290714,0.6809610998682984,0.8038427167113493
0.7267502612330199,0.6653514775746839,0.2809184481393507,0.2969547465124191,0.7351374387385468,0.5360976160885775,0.2953349803807586,0.2779884149552395,0.0542568542568543,0.1952233487464472,0.5561337573479811,0.7287756925826632
0.6750261233019853,0.6085836218697157,0.2788598574821853,0.356328683225587,0.6990198167483486,0.4955372274319285,0.3644819066996076,0.3441548183254344,0.1019841269841269,0.1185254316378908,0.4605056053451543,0.6616175156389634
0.6141215106732348,0.597713181415573,0.3866983372921615,0.3968186457978905,0.6192201150649903,0.526381199864422,0.4392384827786659,0.4143233280674039,0.1879509379509379,0.1571289186781487,0.3920208152645273,0.5985701519213584
0.5250037319002836,0.5695305580159433,0.5201900237529691,0.462487240558013,0.5106541657788195,0.5542876511128686,0.5194012498183403,0.4875987361769353,0.2901875901875902,0.2454078818987825,0.3400147762680287,0.5275245755138517
0.4107329452157038,0.4946453015540704,0.6153602533650041,0.567199727798571,0.3971873002343916,0.5356456897525703,0.6038947827350675,0.5686413902053712,0.4046897546897547,0.3484070758919102,0.285406829205615,0.4327971403038427
0.3070607553366173,0.4004348176181658,0.650197941409343,0.6759952364749915,0.3114212657148945,0.4819794373517115,0.6769946228745822,0.6450500263296471,0.512049062049062,0.4470792856233827,0.2386046063409463,0.3367292225201072
0.2495148529631288,0.3084789435542314,0.5914489311163896,0.7574004763525009,0.2901129341572555,0.3964523782623432,0.7323644819066996,0.7055292259083729,0.5959235209235209,0.5214864463581216,0.1991262728470013,0.2571939231456658
0.2279444693237796,0.2428536919236654,0.5081551860649248,0.8042701599183396,0.3026848497762625,0.320754716981132,0.7740444702804825,0.7511848341232228,0.6577922077922078,0.5742162643702542,0.1736532716584755,0.2028150134048257
0.2230183609493954,0.2032369756019003,0.4406967537608868,0.8280877849608712,0.3218623481781377,0.2688961699243023,0.8002906554279902,0.7802527646129542,0.6968253968253968,0.6088321384634965,0.1683209662394398,0.1823503127792671
0.2184654426033736,0.17771157097995,0.4001583531274743,0.8440796189179993,0.3323034306413808,0.2365834368997853,0.8137189362011334,0.7953396524486571,0.7168470418470418,0.6263946039960973,0.1654620795991134,0.1723413762287756
0.2021197193610986,0.1514614703277236,0.3832145684877277,0.8673018033344676,0.3263370978052418,0.212066433171393,0.8193576515041419,0.8012111637704055,0.7249639249639249,0.6309336953294024,0.1597764286402621,0.1603663985701519
0.1926406926406926,0.14010789918673,0.3809976247030879,0.8787002381762504,0.3203707649691029,0.203253869619252,0.8229036477256212,0.8057135334386519,0.730988455988456,0.6356848937343572,0.1555041598406732,0.1520554066130473
0.2009255112703388,0.143328770432402,0.3697545526524149,0.8722354542361347,0.3300660558278286,0.2015591458592249,0.8307513442813544,0.8138493944181148,0.742099567099567,0.6457387689305563,0.1570460312871414,0.1535746201966041
0.2073443797581728,0.1467912070214993,0.3629453681710213,0.8667914256549847,0.3368847219262731,0.2015591458592249,0.8367388460979509,0.8214849921011058,0.7529942279942279,0.6546048445255165,0.1606437313289004,0.1573726541554959
0.202642185400806,0.1363233754730654,0.3523357086302454,0.8749574685267099,0.3370978052418495,0.1903739690430459,0.8391222206074699,0.8245918904686677,0.7586219336219335,0.6592287786874815,0.1607722206161061,0.1561215370866845
0.1921928646066577,0.1202190192447057,0.3428345209817894,0.8894181694453897,0.3328361389303217,0.1757993447068127,0.8370876326115391,0.8228804634017903,0.7572510822510822,0.6565986509990244,0.1558575053804889,0.1496425379803395
0.1879384982833258,0.1159513648441903,0.3433095803642121,0.894181694453896,0.3296398891966758,0.1729748051067676,0.837000435983142,0.8231700895208004,0.7574675324675325,0.6563017010987147,0.1528701294529568,0.1462019660411081
0.1937602627257799,0.1222320637732506,0.3434679334916865,0.8875467846206194,0.3337950138504155,0.1773810868828381,0.8404883011190234,0.8271458662453923,0.7645382395382395,0.6640223985067664,0.1561144839549002,0.1497319034852547
0.2034632034632034,0.1323778081971173,0.3426761678543151,0.8765736645117388,0.3409333049222245,0.1841599819229465,0.844470280482488,0.8312006319115324,0.7709235209235209,0.6714461460145081,0.1599370402492692,0.1544235924932975
0.2013733393043738,0.1310894596988485,0.3447347585114806,0.878445049336509,0.3388024717664606,0.1840470003389447,0.8456910332800465,0.8329120589784098,0.7734848484848486,0.6745004878462649,0.1597764286402621,0.1530384271671135
0.1920435885953127,0.1225541508978178,0.3477434679334917,0.8883123511398436,0.3310249307479224,0.179188792226867,0.8435692486557186,0.8308846761453397,0.7712842712842712,0.6706825605565689,0.1551508143008576,0.1468722073279714
0.1831616659202866,0.1198969321201385,0.3612034837688044,0.8947771350799593,0.3201576816535265,0.182126313410914,0.842086905972969,0.8288572933122696,0.7696248196248195,0.6676282187248123,0.1511355240756802,0.1416443252904378
0.1883116883116883,0.1294790240760125,0.3692794932699921,0.8867812181013951,0.3212230982314084,0.1916167664670658,0.8455747711088505,0.8328067403896787,0.775,0.672591524201417,0.1541871446468151,0.143923145665773
0.2042842215256008,0.1436508575569691,0.3632620744259699,0.8701939435182034,0.3345408054549328,0.1995254773471924,0.849382357215521,0.8375460768825698,0.7823593073593074,0.6803546430237986,0.1588448813080209,0.1495531724754245
0.202791461412151,0.1426040744021257,0.3643705463182898,0.8716400136100715,0.3331557639036863,0.1991865325951869,0.8507775032698736,0.8387572406529753,0.7858585858585858,0.6834089848555551,0.1588770036298223,0.1489276139410187
0.1882370503060158,0.1308478943554231,0.3721298495645289,0.8861007145287513,0.3201576816535265,0.1936504349790984,0.8486266531027467,0.8363349131121643,0.7817099567099567,0.6778517795783312,0.1531592303491696,0.1415996425379803
0.1852515300791162,0.1269828488606168,0.3708630245447348,0.889843484178292,0.3184530151289154,0.1904869506270477,0.8474640313907862,0.8359136387572406,0.7816378066378066,0.6759852373478131,0.1498185088818219,0.137444146559428
0.1936856247201074,0.13608181012964,0.3708630245447348,0.8802313712146989,0.3245258896228425,0.196813919331149,0.851940124981834,0.8404423380726698,0.7895382395382394,0.684427098799474,0.1531592303491696,0.1415102770330652
0.2001044932079415,0.1438924229003945,0.3726049089469517,0.8724055801292957,0.3284679309610057,0.2029149248672466,0.8572591193140532,0.8460242232754082,0.7968614718614718,0.692656853179485,0.1561144839549002,0.1443699731903485
0.1952530228392297,0.1390611160318866,0.3735550277117973,0.8777645457638653,0.3247389729384189,0.1999774036831996,0.8583345443976166,0.8474723538704582,0.7997474747474748,0.6958384592542317,0.1565963187819215,0.1428060768543342
0.1844305120167189,0.1277075448908929,0.3740300870942201,0.8899285471248723,0.3168548902620924,0.1920686928030731,0.85676500508647,0.84565560821485,0.7974747474747474,0.6924871675221652,0.1521634383733256,0.1376675603217158
0.1795044036423346,0.1229567598035268,0.3751385589865399,0.8952875127594421,0.3129128489239292,0.1891311716190261,0.8553407934893185,0.8452343338599262,0.7981601731601731,0.6924023246935054,0.1499148758472262,0.135656836461126
0.1880877742946708,0.1333440695708189,0.3773555027711798,0.8849098332766246,0.318239931813339,0.1972658456671562,0.8614445574771109,0.8515007898894155,0.8067821067821068,0.7007169219021763,0.1528380071311554,0.1382037533512064
0.193013882669055,0.1414767694661406,0.3828978622327791,0.8777645457638653,0.3199445983379501,0.2049485933792792,0.8682168289492807,0.8584518167456556,0.8159451659451659,0.7096678403257966,0.1555684044842761,0.1420911528150134
0.1869682042095835,0.1340687656010951,0.3811559778305622,0.8850799591697858,0.3162156403153633,0.1991865325951869,0.8673157971225113,0.8593470247498683,0.8177489177489178,0.7096678403257966,0.1515209919372972,0.1381143878462913
0.1733094491715181,0.1236009340526612,0.3895486935866984,0.8984348417829194,0.3036437246963562,0.1947802508191164,0.8668216828949281,0.8582938388625593,0.8162337662337662,0.7060620201077504,0.1451286498988146,0.1303395889186774
0.1677115987460815,0.1170786697801755,0.3885985748218528,0.905069751616196,0.2999147666737694,0.1898090611230369,0.8681005667780846,0.860057925223802,0.8195526695526696,0.7069528698086794,0.1413703382480486,0.1258266309204647
0.1728616211374831,0.122071020210967,0.3874901029295329,0.8995406600884657,0.3039633496697208,0.1929725454750875,0.873884609795088,0.867219589257504,0.8294372294372293,0.7158613668179699,0.1439401239921621,0.1305183199285076
0.1821913718465442,0.1327804171028263,0.3887569279493271,0.888567539979585,0.3102493074792243,0.2009942379392159,0.8795523906408953,0.8749341758820433,0.84004329004329,0.7254486064565393,0.1475378240339211,0.1350759606791778
0.1780862815345574,0.1293179805137289,0.3906571654790183,0.892735624362028,0.3067334327722139,0.1991865325951869,0.8825752070919924,0.8781727224855187,0.8456709956709957,0.7292241123319053,0.1456747293694388,0.1320822162645219
0.1680101507687714,0.1201384974635639,0.3939825811559778,0.9032834297380062,0.2983166418069465,0.1939893797311039,0.8825752070919924,0.8795418641390205,0.8466450216450216,0.7269757773724177,0.1382223507115094,0.1218945487042001
0.1624869383490073,0.119252757871004,0.4039588281868568,0.9069411364409664,0.2910718090773492,0.1969269009151509,0.8828658625199826,0.8815429173249077,0.8507575757575757,0.7280787341449964,0.1329542899360765,0.1147899910634495
0.1702492909389461,0.1300426765440051,0.4087094220110847,0.89673358285131,0.2950138504155124,0.206191390803299,0.8887080366225839,0.8882833070036861,0.8599206349206349,0.7361812242820176,0.1335324917285021,0.1163092046470062
0.180325421704732,0.1427651179644094,0.4123515439429929,0.8843143926505614,0.3009801832516514,0.2163597333634617,0.8957709635227438,0.8981832543443917,0.8711038961038962,0.7441988715903789,0.1347852622787575,0.1185433422698838
0.1749514852963128,0.1436508575569691,0.4254948535233571,0.8868662810479755,0.2927764756019603,0.2216698678115467,0.901002761226566,0.9041864139020536,0.8806277056277056,0.7504348194968821,0.1334361247630978,0.116130473637176
0.1615166442752649,0.1339077220388115,0.4348376880443389,0.8997107859816265,0.2799914766673769,0.2181674387074907,0.9024560383665166,0.9063981042654028,0.8839105339105339,0.7494591269672931,0.1262086023577784,0.1080428954423592
0.1557695178384833,0.1289958933891618,0.4373713380839273,0.9055801292956788,0.2750905604091199,0.2156818438594508,0.9044906263624471,0.909768299104792,0.889033189033189,0.750562083739872,0.1196877710320901,0.1016085790884718
0.1585311240483654,0.1380143328770432,0.4492478226444973,0.8992854712487242,0.272959727253356,0.226189131171619,0.9132393547449498,0.9198788836229592,0.9015873015873016,0.7619734441946295,0.1208441746169413,0.1041108132260947
0.1665173906553216,0.1495289475803204,0.4551068883610451,0.8886526029261654,0.2766886852759428,0.2363574737317817,0.9225403284406336,0.9306477093206952,0.9168831168831169,0.7748695541509354,0.1227072692814236,0.1059874888293118
0.1565905359008807,0.1442950318061035,0.4657165479018211,0.8969887716910515,0.2661410611549115,0.2364704553157835,0.9263769800901032,0.936361242759347,0.9258297258297258,0.7789844313409411,0.1177283094022036,0.1011170688114388
0.1382295865054485,0.1326998953216845,0.4818685669041965,0.9135760462742428,0.2474962710419774,0.2340978420517455,0.928266240372039,0.9398630858346498,0.9295093795093796,0.776311882238154,0.1078988789309691,0.0890974084003574
0.1308404239438722,0.1343103309445205,0.5008709422011085,0.9169785641374618,0.2358832303430641,0.242006552931872,0.933323644819067,0.9447604002106372,0.9355699855699856,0.7788147456836212,0.1008319681346567,0.0814119749776586
0.134945514255859,0.1468717288026411,0.5167062549485353,0.907961891799932,0.2335393138717238,0.2564681956841035,0.9412876035459962,0.95376513954713,0.948088023088023,0.7883595639078608,0.0991294850791815,0.0818588025022341
0.1344230482161516,0.1558096465093808,0.535391923990499,0.903623681524328,0.2268271894310675,0.2693480962603095,0.9496584798721116,0.9630068457082674,0.9606782106782108,0.7962499469732321,0.0981015707815361,0.0822162645218945
0.1244961934617107,0.1525887752637088,0.5501187648456058,0.9109390949302484,0.2147879821010014,0.2723985990283583,0.9541345734631592,0.9670352817272247,0.9656565656565655,0.7954439401009631,0.091516494812245,0.0760500446827524
0.1082251082251082,0.1439729446815363,0.5675376088677753,0.9247192922762846,0.1973151502237374,0.272624562196362,0.9536404592355764,0.9670616113744076,0.9655483405483404,0.7895897849234293,0.0804021714689537,0.0640750670241287
0.1035975518734139,0.1479990337386263,0.5854315122723674,0.9252296699557672,0.1880460259961645,0.2817760705005084,0.955616916145909,0.9688256977356504,0.9669552669552668,0.788189878250541,0.0727249365584144,0.0569258266309204
0.1098671443499029,0.1634592157178516,0.6025336500395884,0.9134909833276624,0.1867675261027061,0.2987233081007795,0.9604417962505448,0.9743022643496576,0.9746753246753246,0.7942561404997244,0.0721788570877903,0.0590705987488829
0.1085236602477981,0.1745712215154199,0.6272367379255741,0.9083872065328344,0.1773918602173449,0.3153316009490453,0.9673884609795088,0.9798051606108478,0.9847763347763347,0.8021889449794257,0.0733995053162442,0.0621983914209115
0.1006866696521869,0.171752959175457,0.6381631037212985,0.9143416127934672,0.1682292776475602,0.317252287877076,0.967882575207092,0.9788572933122696,0.9812049062049062,0.7971407966741612,0.0662362275545276,0.0567917783735478
0.0892670547842961,0.1646670424349786,0.6487727632620744,0.924634229329704,0.1564031536330705,0.3161224720370579,0.9636390059584362,0.9745918904686676,0.9764069264069264,0.789971577652399,0.0579807908515627,0.0488829311885612
0.0854605164949992,0.1652306949029712,0.6577988915281078,0.9265056141544744,0.1507564457702961,0.3197378827251158,0.9615172213341084,0.9721695629278568,0.9735209235209236,0.7858142790480636,0.0541261122353923,0.0453083109919571
0.0929243170622481,0.1808519204444802,0.6726840855106889,0.9140013610071454,0.1509695290858725,0.336007230821376,0.9636680715012352,0.9737493417588204,0.9778499278499276,0.7904806346243584,0.057081365841123,0.0496872207327971
0.099641737572772,0.1938159272083098,0.6839271575613619,0.9032834297380062,0.1520349456637545,0.3491130945655857,0.9647144310419996,0.9749078462348604,0.9806998556998556,0.7945530904000341,0.0607111882046834,0.0556300268096514
0.1025526197939991,0.194138014332877,0.6783847980997626,0.9014971078598164,0.1559769870019177,0.3473053892215569,0.9597732887661676,0.969536598209584,0.9742063492063492,0.7896746277520893,0.0605505765956763,0.0559428060768543
0.0934467831019555,0.1851195748449955,0.6799683293745052,0.9114494726097312,0.1489452375878968,0.3415433284374647,0.9511408225548612,0.9596629805160612,0.9637806637806636,0.7802570737708396,0.0580450354951655,0.0524128686327077
0.0888938647559337,0.1862468797809807,0.6918448139350754,0.9134909833276624,0.1417004048582996,0.3465145181335442,0.9449789274814708,0.9518957345971564,0.9554834054834054,0.776311882238154,0.0607111882046834,0.0549151027703306
0.1070309001343484,0.1990498429825268,0.6785431512272367,0.8963082681184077,0.1590666950777754,0.3508078183256128,0.9400668507484377,0.946024223275408,0.9495310245310244,0.7770330462817632,0.068870257942244,0.0651474530831099
0.1194954470816539,0.209759239874386,0.673317498020586,0.8835488261313373,0.1698274025143831,0.3564568975257032,0.9341084144746404,0.9385202738283306,0.9416666666666668,0.777117889110423,0.0792457678841026,0.0768543342269883
0.1237498134049858,0.2114501972783637,0.6674584323040381,0.8803164341612795,0.1748348604304283,0.3555530448536889,0.9224240662694376,0.925908372827804,0.9263347763347762,0.769736563017011,0.0857344768879894,0.0836461126005362
0.129123749813405,0.2096787180932442,0.652573238321457,0.8781898604967676,0.1835712763690603,0.349000112981584,0.9077750326987356,0.9098736176935228,0.9051226551226552,0.7581555169049337,0.0901352349747839,0.0882931188561215
0.1385281385281385,0.2150736774297447,0.6432304038004752,0.8699387546784622,0.1934796505433624,0.3494520393175912,0.8946955384391803,0.8947340705634544,0.8866161616161616,0.7491621770669834,0.0982621823905432,0.0965594280607685
0.1571130019405881,0.2303728158466865,0.6340459224069676,0.8512249064307589,0.2098870658427445,0.3569088238617105,0.8869931695974422,0.8849394418114798,0.8743867243867243,0.7470411063504858,0.1132311843500048,0.1131367292225201
0.174055829228243,0.2391496899911426,0.6152019002375299,0.8370193943518204,0.228212230982314,0.3563439159417015,0.8798139805260863,0.8750394944707741,0.8615440115440115,0.7449624570483181,0.127557739873438,0.1299821268990169
0.1816689058068368,0.2350430791529108,0.5908155186064925,0.8348077577407282,0.241849563179203,0.344819794373517,0.8669088795233251,0.8600842548709847,0.841125541125541,0.7323208755779919,0.1367447239086441,0.1380697050938337
0.1830123899089416,0.2266688139141637,0.5716547901821062,0.8384654644436883,0.2493074792243767,0.3320528753813129,0.8527539601802063,0.8436808846761454,0.8186147186147186,0.7168370593475587,0.1422055186148855,0.1420017873100983
0.1945066427825048,0.2284402930992833,0.5507521773555029,0.8309799251446071,0.2645429362880886,0.3258388882612134,0.8433076587705275,0.8319905213270142,0.800036075036075,0.7059771772790906,0.1499148758472262,0.1496872207327971
0.2089117778772951,0.2344794266849182,0.5322248614410136,0.8195814903028241,0.2810568932452588,0.3234662749971754,0.8391222206074699,0.8248551869404951,0.7893939393939393,0.7008441861451662,0.1609007099033118,0.1624218051831993
0.2216748768472906,0.238988646428859,0.5138558986539985,0.8098843143926506,0.2963988919667589,0.3200768274771212,0.8350239790728091,0.8190100052659294,0.7812770562770562,0.6976201586560896,0.1708586296617519,0.1745755138516532
0.2230183609493954,0.2313390772203881,0.4959619952494062,0.8132017693092889,0.3033240997229916,0.3083267427409332,0.8269146926318849,0.8104791995787256,0.7673881673881673,0.68816018326051,0.1758054672191706,0.1801608579088471
0.2183161665920286,0.2191802882679764,0.4820269200316706,0.8223035045933992,0.3047091412742382,0.2948819342447181,0.8177009155645981,0.7984202211690363,0.7500721500721501,0.6739490094599754,0.1757412225755677,0.1779714030384271
0.2218241528586356,0.2182945486754167,0.4728424386381631,0.8207723715549506,0.3102493074792243,0.2909275788046548,0.8119750036331929,0.7913112164296998,0.7395743145743146,0.666016204980274,0.1782146413542771,0.1794012511170688
0.2329452157038363,0.2250583782913278,0.4625494853523357,0.8108200068050359,0.3216492648625612,0.2920573946446729,0.8109286440924284,0.790810953133228,0.7374098124098124,0.666016204980274,0.1865022003790434,0.1882931188561215
0.2427974324526048,0.2298091633786939,0.4509897070467142,0.8027390268798913,0.3326230556147453,0.2911535419726584,0.8102020055224531,0.7887572406529751,0.7342352092352091,0.6653374623509949,0.1936012334971572,0.1962466487935656
0.238393790117928,0.2211933327965214,0.4433887569279494,0.8097992514460702,0.3319838056680161,0.2824539600045193,0.807498910042145,0.7848077935755661,0.7287518037518037,0.659652992830781,0.1949182486910153,0.1971849865951742
0.2288401253918495,0.2063773250664305,0.4345209817893903,0.8230690711126235,0.3281483059876411,0.2688961699243023,0.8014532771399505,0.7785413375460768,0.7192279942279942,0.6497688032919018,0.1918987504416819,0.1934763181411975
0.2307807135393342,0.2056526290361542,0.4289786223277911,0.8223885675399796,0.331344555721287,0.2664105750762625,0.7980235430896672,0.7751711427066877,0.7143939393939394,0.6448054978152973,0.1909672031094407,0.1915996425379803
0.2412300343334826,0.2145905467428939,0.4245447347585115,0.8116706362708405,0.3404005966332836,0.2710428200203366,0.8002034587995931,0.7774091627172196,0.7165945165945166,0.6484113180333433,0.1967492210336963,0.1983914209115281
0.2480967308553515,0.2178114179885659,0.4163103721298496,0.8060564817965294,0.3479650543362454,0.2704779121003276,0.802296177881122,0.7799368088467614,0.719083694083694,0.6518050311797396,0.2021778934181362,0.205272564789991
0.2432452604866397,0.2103228923423786,0.4117181314330958,0.8127764545763867,0.3461538461538461,0.2634730538922155,0.8010463595407644,0.7788046340179042,0.7164502164502163,0.6490476392482926,0.2003147987536539,0.2029937444146559
0.232124197641439,0.1978420162653998,0.4107680126682502,0.825706022456618,0.3384828467930961,0.254434527172071,0.7964249382357216,0.774565560821485,0.7103896103896103,0.6425995842701396,0.1949503710128168,0.1954423592493297
0.2317510076130765,0.1971173202351235,0.4101346001583532,0.8263014630826813,0.3384828467930961,0.2536436560840583,0.795146054352565,0.7734597156398104,0.7092352092352092,0.6417087345692106,0.1932157656355401,0.193521000893655
0.2427227944469323,0.20814880425155,0.4085510688836105,0.8142225246682546,0.3467930961005753,0.260874477460174,0.7995640168580148,0.7780937335439705,0.7144300144300143,0.6463326687311756,0.1974237897915261,0.1991063449508489
0.2464546947305568,0.211369675497222,0.4068091844813936,0.8103946920721335,0.3500958874920093,0.2624562196361993,0.8028774887371022,0.7819641916798314,0.7197691197691197,0.6527383022949986,0.2015675693039093,0.2039320822162645
0.2451858486341244,0.2054110636927289,0.3979414093428346,0.814307587614835,0.352120178989985,0.2551124166760818,0.8007266385699753,0.7805423907319642,0.7186868686868686,0.6519322954227295,0.2001541871446468,0.2016979445933869
0.2331691297208538,0.1905950559626379,0.3942992874109264,0.8289384144266758,0.3447688046025996,0.2434753135238955,0.7968899869205057,0.7766719325961032,0.7126984126984126,0.6446782335723074,0.1942436799331856,0.1945040214477212
0.2331691297208538,0.1906755777437797,0.3944576405384007,0.8289384144266758,0.3446622629448114,0.2435882951078973,0.7965993314925156,0.7761716692996313,0.7123737373737373,0.643193484070759,0.1930230317047316,0.1940125111706881
0.2425735184355874,0.1998550607939447,0.3925574030087095,0.8187308608370194,0.3520136373321968,0.2493503558919896,0.8008138351983722,0.7800947867298578,0.7172799422799423,0.6499384889492217,0.1971025665735119,0.1996425379803395
0.2474996268099716,0.2026733231339077,0.3878068091844814,0.8143926505614154,0.3572341785638184,0.2495763190599932,0.8037785205638716,0.7840968931016324,0.7224025974025974,0.6563865439273746,0.2000578201792425,0.2029937444146559
0.2420510523958799,0.1951847974877204,0.3843230403800476,0.8214528751275944,0.3544640954613254,0.2431363687718901,0.8028484231943032,0.7826487625065823,0.7205988455988456,0.6535018877529377,0.1970061996081076,0.1984361036639857
0.232273473652784,0.1843948788147194,0.3841646872525733,0.8326811840762164,0.3475388877050927,0.235566602643769,0.7983432640604563,0.7781200631911532,0.7158008658008659,0.6464599329741654,0.1921557290160932,0.1913762287756926
0.2325720256754739,0.1885014896529511,0.3912905779889153,0.8303844845185437,0.3453015128915406,0.240876737091854,0.79735503560529,0.7779620853080569,0.7152236652236652,0.6465447758028253,0.1905496129260223,0.1905719392314566
0.2401851022540677,0.2012239310733553,0.4003167062549485,0.8193263014630827,0.347751971020669,0.2530787481640492,0.8013079494259555,0.7808056872037915,0.718073593073593,0.6515505026937599,0.1933121326009444,0.1938337801608579
0.244812658605762,0.204525324100169,0.396991290577989,0.8149880911874787,0.3522267206477733,0.2542085640040673,0.8033716029646853,0.782596103212217,0.7214285714285714,0.6548593730114962,0.1954964504834409,0.1967828418230563
0.2456336766681593,0.1966341895482728,0.3797307996832937,0.818645797890439,0.3585126784572768,0.2425714608518811,0.8015986048539456,0.7815429173249079,0.7193362193362193,0.652398930980359,0.1937297227843628,0.195308310991957
0.2357068219137184,0.1860858362186971,0.379889152810768,0.829874106839061,0.3514809290432559,0.2352276578917636,0.79735503560529,0.777172195892575,0.7138888888888889,0.6452721333729267,0.18823680575632,0.1894548704200178
0.2331691297208538,0.1854416619695628,0.3841646872525733,0.8316604287172509,0.3481781376518219,0.2362444921477798,0.7961924138933294,0.776119010005266,0.7113997113997114,0.6419632630551902,0.1870804021714689,0.1885612153708668
0.2396626362143603,0.1918834044609066,0.3828978622327791,0.8246002041510718,0.353185595567867,0.240311829171845,0.7993896236012208,0.7786203264876251,0.714105339105339,0.6447630764009673,0.1901641450644052,0.1929848078641644
0.244812658605762,0.19695627667284,0.3821060965954078,0.8189860496767608,0.3572341785638184,0.2435882951078973,0.8022089812527249,0.7807266982622433,0.7176046176046176,0.6491324820769525,0.1938903343933699,0.1969615728328865
0.2411553963278101,0.1887430549963765,0.3738717339667459,0.825365770670296,0.3573407202216067,0.2348887131397582,0.7998546722860049,0.7788836229594523,0.7142857142857143,0.6454842404445764,0.1913526709710578,0.1937444146559427
0.2339155097775787,0.179322006602786,0.370387965162312,0.8344675059544062,0.3533986788834434,0.2269800022596317,0.7947100712105799,0.774670879410216,0.7077200577200576,0.6381877571798245,0.1865664450226462,0.1882484361036639
0.2313778175847141,0.1808519204444802,0.3787806809184482,0.8350629465804695,0.3487108459407628,0.2311603208676985,0.7941868914401976,0.7729067930489731,0.7053030303030302,0.6353455224197175,0.1838681699913269,0.1860142984807864
0.2378713240782206,0.1880183589661003,0.3790973871733967,0.8275774072813883,0.353185595567867,0.2362444921477798,0.7963668071501235,0.7751184834123223,0.7078643578643579,0.637636278793535,0.1867913012752561,0.1895442359249329
0.2460815047021943,0.1970367984539818,0.3795724465558195,0.8181354202109562,0.3589388450884295,0.2427974240198847,0.7995349513152158,0.778909952606635,0.7126984126984126,0.6425995842701396,0.1913205486492563,0.195710455764075
0.2429467084639498,0.1918028826797649,0.3759303246239114,0.8227288193263015,0.3579799701683358,0.2378262343238052,0.7954367097805551,0.7761453396524487,0.7082611832611833,0.6379332286938447,0.1893610870193697,0.1927613941018766
