Lead I,Lead II,Lead III,aVR,aVL,aVF,V1,V2,V3,V4,V5,V6
0.1985565819861432,0.2463844967219437,0.4093872229465449,0.7780016970725498,0.2595088520845232,0.2733669879149457,0.5163365325709618,0.3165807560137457,0.5380201958384333,0.476644555002764,0.4391838351822504,0.393934330353413
0.1975173210161663,0.2457096027767065,0.4098613251155624,0.7788502333474755,0.258252427184466,0.2729845494875325,0.5236879722278945,0.3234536082474227,0.5428396572827417,0.4795006449235305,0.4410063391442155,0.3969003258417579
0.2028290993071594,0.2495179328962591,0.4084390186085102,0.7742893508697496,0.2643061107938321,0.2755086431084595,0.5358382683275474,0.3383447880870561,0.5510250917992656,0.4836005159388244,0.4457606973058637,0.4027905422341048
0.2030600461893764,0.2491804859236406,0.4071352376437122,0.7743423843869325,0.2651056539120503,0.2748967416245984,0.5325709618133551,0.3311855670103092,0.5488831089351285,0.4810668877833057,0.4451267828843107,0.4035007101679339
0.1945150115473441,0.2417084458156575,0.4061870333056774,0.7824034789987272,0.2571102227298686,0.2686247514150222,0.518991219113743,0.3052691867124857,0.5356487148102815,0.47254468398747,0.4393819334389858,0.3971509733478152
0.190473441108545,0.2387678364828384,0.4072537631859665,0.785850657615613,0.2526556253569389,0.2666360715924736,0.5133755360424749,0.3009736540664375,0.530905752753978,0.4709784411276949,0.4362519809825674,0.3943103016124989
0.1965357967667436,0.2446972618588507,0.4093872229465449,0.779804836656767,0.2575671045117076,0.2719902095762582,0.5217480089850929,0.3121420389461626,0.5348072215422276,0.4741569928137092,0.4385103011093502,0.3966496783357005
0.2000577367205543,0.250578480524489,0.4166172810240606,0.7749787865931269,0.2575671045117076,0.2790270766406608,0.536552991627527,0.3274627720504008,0.5435281517747858,0.4776119402985075,0.4427892234548336,0.4006182638482747
0.1900115473441108,0.2500964134207482,0.436055469953775,0.7798578701739498,0.238263849229012,0.2849166284228239,0.5375740249132122,0.3267468499427262,0.5452876376988984,0.4770130827344758,0.4433042789223455,0.4009524605230178
0.1810046189376443,0.2440705746239876,0.43972976176366,0.7872825625795502,0.2276413478012564,0.28132170720514,0.5264447620992444,0.3081328751431844,0.5361842105263157,0.4701492537313433,0.4377179080824089,0.3952711170523853
0.18135103926097,0.2419012726571539,0.4336849591086879,0.7883432329232074,0.2308395202741291,0.2776502983019733,0.5244026955278742,0.3065578465063001,0.5336597307221542,0.4696885940667035,0.4370839936608558,0.3943103016124989
0.1906466512702078,0.2489876590821442,0.4320256015171269,0.780176071277047,0.240890919474586,0.2826984855438274,0.536757198284664,0.3323310423825887,0.5452876376988984,0.4768748848350839,0.4431854199683043,0.4000751942518172
0.1969976905311778,0.2572310065561126,0.4391371340523883,0.7726983453542638,0.2437464306110794,0.2915710570598134,0.5508474576271186,0.3556701030927834,0.5557680538555692,0.4833241201400405,0.4491283676703645,0.4055058902163923
0.1989607390300231,0.2595449286540686,0.4409150171862036,0.7705239711497666,0.244774414620217,0.2939421753097751,0.5515621809270982,0.3523768613974799,0.5542380660954712,0.4817118113138013,0.4487321711568938,0.405255242710335
0.1934757505773672,0.2541457770921712,0.4389000829678795,0.776039456936784,0.2403198172472873,0.2890469634388863,0.536552991627527,0.3321878579610538,0.5442166462668299,0.4761838953381243,0.443621236133122,0.400158743420503
0.1934180138568129,0.2521693019668338,0.4341590612777053,0.7771531607976241,0.2424900057110223,0.2859874560195808,0.5344088217275883,0.3238831615120275,0.5402386780905752,0.4742491247466372,0.4409667194928685,0.3966079037513577
0.1995958429561201,0.2543386039336676,0.4268104776579353,0.7731226134917267,0.2521987435751,0.2852990668502371,0.5414539513988155,0.3386311569301259,0.546282129742962,0.478671457527179,0.4444136291600634,0.3995321246553596
0.2084295612009238,0.2590146548399537,0.420054521749437,0.7664934238438693,0.2641918903483723,0.2868288205598898,0.5477843577700633,0.3523768613974799,0.5520960832313342,0.4834162520729685,0.4495641838351822,0.4045868493608488
0.2068129330254041,0.2594003085229464,0.4244399668128482,0.7670237590156979,0.2605368360936608,0.2885115496405079,0.5432918113130488,0.3459335624284078,0.5511015911872705,0.4817578772802653,0.4498019017432647,0.4054223410477066
0.2009815242494226,0.2518318549942152,0.4178025364466042,0.7738650827322868,0.2579097658480868,0.2804038549793483,0.5278742086992035,0.3207331042382589,0.5377141982864136,0.4739727289478533,0.4431854199683043,0.3995738992397026
0.1927829099307159,0.2429618202853837,0.4129429892141756,0.7825095460330929,0.2520845231296402,0.2718372342052929,0.5259342454564019,0.3072737686139747,0.5318237454100367,0.4708863091947669,0.4388668779714739,0.3956470883114713
0.1920900692840647,0.2498553798688777,0.4311959227213464,0.7790093338990242,0.242604226156482,0.2831574116567232,0.5360424749846844,0.3148625429553264,0.5377141982864136,0.4723604201216141,0.4402139461172741,0.3962319324922717
0.1954387990762124,0.2566525260316236,0.441033542728458,0.773759015697921,0.2412335808109652,0.2917240324307786,0.5482948744129058,0.32946735395189,0.5463586291309669,0.4769209508015478,0.4449683042789223,0.4006600384326176
0.1901270207852194,0.2544350173544157,0.4466042432144126,0.7774183283835383,0.2333523700742433,0.2918005201162613,0.5450275678987134,0.3234536082474227,0.5444461444308445,0.4756311037405565,0.4425911251980983,0.3986966329685019
0.1831986143187067,0.2481199382954107,0.4451819367073604,0.7840475180313958,0.2271844660194175,0.2862934067615114,0.5312436185419644,0.299971363115693,0.5335832313341493,0.4684448129721761,0.4353011093502377,0.3909265602807252
0.1800230946882217,0.2419012726571539,0.4364110465805381,0.7889796351294017,0.2282124500285551,0.2784916628422824,0.5255258321421278,0.2899484536082474,0.5261627906976744,0.4655426570849457,0.4317749603803487,0.3864984543403792
0.1877598152424942,0.2444080215966062,0.4268104776579353,0.7839944845142129,0.2405482581382068,0.2774208352455254,0.5389013681846028,0.3055555555555555,0.536031211750306,0.4700110558319514,0.4357369255150555,0.3908430111120394
0.1938221709006928,0.2507231006556112,0.4297736162142941,0.7777895630038184,0.2450028555111365,0.2833868747131711,0.549315907698591,0.3233104238258877,0.5462056303549572,0.4754007739082366,0.440689381933439,0.3966079037513577
0.1913972286374134,0.2499517932896259,0.4328552803129074,0.7792745014849385,0.2412335808109652,0.2837693131405843,0.5446191545844394,0.3194444444444444,0.5444461444308445,0.4742951907131011,0.4404516640253566,0.3967332275043863
0.1833140877598152,0.2424797531816429,0.431077397179092,0.7871234620280017,0.2340376927470017,0.2772678598745602,0.5314478251991014,0.2958190148911798,0.533047735618115,0.4674774276764327,0.4360935023771791,0.392096248642326
0.1801385681293303,0.2383339760894716,0.427403105369207,0.7908358082308018,0.2326670474014849,0.2728315741165672,0.5241984888707372,0.2856529209621993,0.5281517747858018,0.4656808549843376,0.4338351822503962,0.3903834906842677
0.183487297921478,0.2432992672580023,0.4326182292283986,0.786593126856173,0.2334665905197031,0.2784151751567997,0.5389013681846028,0.3031214203894616,0.5359547123623011,0.4710245070941589,0.4385103011093502,0.3944773999498704
0.1913972286374134,0.2502410335518704,0.4335664335664335,0.7791154009333899,0.240890919474586,0.2842282392534802,0.5471717377986522,0.3142898052691866,0.543375152998776,0.4740648608807813,0.4419968304278922,0.3971927479321581
0.1870669745958429,0.2504820671037409,0.443048476946782,0.7809715740347899,0.2319817247287265,0.2875172097292336,0.5404329181131304,0.3036941580756013,0.5395501835985312,0.4724986180210061,0.439500792393027,0.3959395104018715
0.1797344110854503,0.2458542229078287,0.446722768756667,0.7869113279592702,0.2229583095374072,0.2849931161083066,0.5240963855421686,0.2766323024054983,0.5256272949816402,0.4654044591855538,0.4336370839936608,0.3901746177625533
0.1760969976905312,0.2417084458156575,0.4438781557425625,0.7908358082308018,0.2207881210736722,0.2807862934067615,0.522564835613641,0.2674684994272622,0.5198133414932681,0.4617191818684357,0.4303882725832013,0.387709917286323
0.1810046189376443,0.2461434631700732,0.4448263600805974,0.7861688587187102,0.2251284980011422,0.2846106776808934,0.5387992648560342,0.2827892325315005,0.5283047735618115,0.4674313617099687,0.4348256735340729,0.392806416576155
0.1836605080831409,0.2486502121095256,0.4455375133341235,0.7835702163767501,0.227412906910337,0.2868288205598898,0.5489074943843169,0.2948167239404353,0.5351132190942472,0.4712548369264787,0.4376782884310618,0.3959812849862144
0.1811778290993071,0.2447936752795989,0.4411520682707123,0.7868582944420873,0.2270702455739578,0.2823925348018968,0.5483969777414743,0.2975372279495991,0.5346542227662179,0.4695503961673116,0.436608557844691,0.3939761049377558
0.1725750577367205,0.2346702661010412,0.4339220101931966,0.7963512940178192,0.2220445459737293,0.2719902095762582,0.5448233612415764,0.2869415807560137,0.5270807833537332,0.4632854247282108,0.4309033280507132,0.3881694377140947
0.1715935334872979,0.2314886232163517,0.4281142586227331,0.7985256682223165,0.2238720731010851,0.2676304115037479,0.5448233612415764,0.2882302405498281,0.5260862913096696,0.4631472268288189,0.4297147385103011,0.387333946027237
0.1801963048498845,0.2388160431932125,0.4284698352494963,0.7905706406448875,0.2322101656196459,0.273519963285911,0.5623851337553604,0.315721649484536,0.5380201958384333,0.4701031877648793,0.4352218700475436,0.3927646419918122
0.186662817551963,0.2460952564596992,0.4330923313974161,0.7835702163767501,0.2364363221016562,0.2807862934067615,0.5806616295691239,0.3416380297823597,0.552937576499388,0.4775198083655795,0.4406101426307449,0.3981117887877015
0.1835450346420323,0.2441187813343617,0.4346331634467227,0.7861158252015272,0.2325528269560251,0.2797154658100045,0.5829079027976312,0.3439289805269186,0.5550795593635252,0.4762760272710522,0.4396988906497623,0.3970256495947865
0.1755196304849884,0.2370323949093713,0.4336849591086879,0.7936996181586763,0.2251284980011422,0.2737494263423589,0.5807637328976925,0.3326174112256586,0.5504895960832313,0.4724525520545421,0.4350633914421553,0.3923051215640404
0.1774249422632794,0.2361646741226378,0.4276401564537158,0.7933283835383962,0.2298115362649915,0.2711488450359492,0.5930161323259138,0.3410652920962199,0.5556150550795593,0.474663718444813,0.4356973058637084,0.3925557690700977
0.183256351039261,0.2418048592364057,0.4295365651297854,0.7875477301654645,0.2347230154197601,0.2761970322778033,0.6196651010822952,0.3709908361970217,0.5695379436964504,0.4832780541735766,0.4409667194928685,0.3979864650346729
0.1840646651270208,0.2449382954107211,0.4355813677847576,0.7854263894781501,0.2326670474014849,0.2806333180357962,0.6442720032673064,0.3876002290950744,0.5778763769889841,0.4859038142620233,0.4439778129952457,0.4005347146795889
0.177540415704388,0.2455649826455842,0.4505155861088064,0.7880780653372931,0.2189605939463164,0.2859874560195808,0.6520318562385133,0.3754295532646048,0.5747399020807833,0.4814354155150175,0.4404912836767036,0.3979029158659871
0.1685334872979215,0.2411781720015426,0.4582197463553395,0.7946542214679677,0.2062821245002856,0.2849931161083066,0.6458035531958342,0.3370561282932417,0.557374541003672,0.4713469688594067,0.4316164817749604,0.3889631548166095
0.1652424942263279,0.2403586579251832,0.4629607680455138,0.7966164616037335,0.2007995431182181,0.2858344806486155,0.6505003063099857,0.3087056128293241,0.5446756425948592,0.4660033167495854,0.4270998415213946,0.3840755284484919
0.1643764434180138,0.2438777477824913,0.4735095413061515,0.7950784896054306,0.1948600799543118,0.2920299831727092,0.6680620788237697,0.3044100801832761,0.5472001223990207,0.468813340703888,0.4297147385103011,0.3866237780934079
0.1670900692840647,0.2509641342074817,0.4852435699893327,0.7899342384386933,0.1918903483723587,0.3014379684870735,0.6793955482948744,0.3004009163802978,0.5501070991432069,0.470840243228303,0.4316957210776545,0.3896733227504386
0.1612586605080831,0.2516872348630929,0.498992532890838,0.7922146796775562,0.179554540262707,0.3064861557289276,0.6684704921380437,0.2773482245131729,0.5449816401468788,0.4673392297770407,0.4306259904912837,0.3892973514913527
0.1589491916859122,0.2461434631700732,0.4899845916795068,0.7962982605006363,0.1814962878355226,0.2992198256080771,0.6255870941392688,0.242983963344788,0.5310587515299877,0.4604293348074443,0.425039619651347,0.3837831063580917
0.1663394919168591,0.2470593906671808,0.4771838331160365,0.7924268137462877,0.1950885208452313,0.2957778797613584,0.5802532162548498,0.2290950744558992,0.5272337821297429,0.4619034457342915,0.4246830427892235,0.3834906842676915
0.178175519630485,0.2496143463170073,0.4591679506933744,0.7855854900296987,0.2154197601370645,0.2919534954872265,0.5484990810700429,0.2416953035509736,0.5332007343941249,0.4678920213746084,0.4303486529318542,0.3890467039852953
0.1877598152424942,0.2473486309294254,0.4339220101931966,0.7824034789987272,0.2371216447744146,0.2820100963744837,0.5251174188278538,0.2585910652920962,0.5369492044063647,0.4705638474295191,0.4330427892234549,0.392430445317069
0.1885103926096998,0.2404550713459313,0.4153135000592627,0.785850657615613,0.2467161621930325,0.2706134312375707,0.5154176026138452,0.2707617411225658,0.5354192166462668,0.4677998894416805,0.4306259904912837,0.3894226752443813
0.1881639722863741,0.2349595063632857,0.4026312670380467,0.7890326686465846,0.2525414049114792,0.262123298148998,0.5092914028997345,0.265750286368843,0.528687270501836,0.4633314906946748,0.4266244057052298,0.3842844013702063
0.1893187066974596,0.2341399922869263,0.3982458219746355,0.7889796351294017,0.2557395773843518,0.2600581306409668,0.5129671227282009,0.2757731958762887,0.5336597307221542,0.4662336465819053,0.4279714738510302,0.3852869913944356
0.1986143187066975,0.2405996914770536,0.3950456323337679,0.7811306745863386,0.2664762992575671,0.2641884656570292,0.528180518684909,0.3101374570446735,0.5475061199510404,0.4751704440759167,0.4351822503961965,0.3919291503049544
0.2045612009237875,0.2441669880447358,0.3917269171506459,0.7764637250742469,0.2740148486579098,0.2659476824231299,0.5368593016132325,0.3297537227949598,0.5562270501835985,0.4795006449235305,0.4403328050713154,0.3969003258417579
0.2013856812933025,0.2389124566139606,0.3852080123266564,0.7808124734832413,0.2740148486579098,0.2596756922135536,0.5327751684704921,0.3161512027491408,0.549189106487148,0.4753547079417726,0.4372424722662441,0.3943103016124989
0.1942263279445727,0.2317778634785962,0.3824819248548062,0.7879719983029274,0.2683038263849229,0.2530977512620468,0.5207269756994077,0.2909507445589919,0.5339657282741738,0.4676156255758246,0.4303882725832013,0.3870832985211797
0.1919168591224018,0.2289818742768993,0.3803484650942278,0.7905706406448875,0.2670474014848658,0.2501912192137066,0.5197059424137227,0.2820733104238259,0.5283047735618115,0.4651280633867699,0.4272979397781299,0.3838666555267774
0.1945150115473441,0.2344292325491708,0.3882896764252697,0.7863809927874417,0.2657909765848087,0.2570751109071439,0.5364508882989585,0.3031214203894616,0.5408506731946144,0.4718536944905104,0.4332805071315372,0.3895062244130671
0.2002309468822171,0.2401658310836869,0.3906601872703568,0.7806003394145099,0.2702455739577384,0.2624292488909285,0.5429855013273432,0.3141466208476517,0.5464351285189718,0.4752165100423807,0.4363312202852615,0.3927646419918122
0.1967667436489607,0.2384785962205939,0.3936233258267156,0.7831459482392872,0.2654483152484295,0.2619703227780327,0.5362466816418214,0.295389461626575,0.5386321909424725,0.470609913395983,0.4324088748019017,0.3888796056479238
0.1853926096997691,0.2312957963748554,0.399431077397179,0.7923207467119219,0.2513992004568818,0.2582224261893835,0.5247090055135797,0.2700458190148911,0.5240973072215422,0.4623641053989313,0.4248811410459588,0.3808171108697468
0.1844110854503464,0.2281141534901658,0.3935048002844613,0.794548154433602,0.2532267275842376,0.2537096527459079,0.5220543189707983,0.265750286368843,0.5207313341493268,0.4615809839690437,0.4236925515055468,0.3782270866404879
0.1920323325635104,0.2326455842653297,0.3890008296787958,0.788502333474756,0.2629354654483153,0.2559277956249043,0.5330814784561977,0.2836483390607102,0.5308292533659731,0.4685369449051041,0.429080824088748,0.3842426267858634
0.1968822170900693,0.2349112996529117,0.3844968590731303,0.7850551548578701,0.2699029126213593,0.2562337463668349,0.5462528078415356,0.2973940435280641,0.5403151774785802,0.4742951907131011,0.4343898573692552,0.3900492940095246
0.1935912240184757,0.2338025453143077,0.3886452530520327,0.7871764955451845,0.2646487721302114,0.2566926724797307,0.5373698182560751,0.2774914089347078,0.5326652386780906,0.4684448129721761,0.4306259904912837,0.3873757206115799
0.1845265588914549,0.231681450057848,0.4020386393267749,0.7924798472634704,0.2492290119931468,0.2592932537861404,0.5188891157851745,0.2469931271477663,0.5160648714810282,0.4585406301824212,0.4224643423137877,0.3798562954298605
0.1802540415704388,0.2266197454685692,0.3982458219746355,0.7972528638099278,0.2468303826384923,0.2540920911733211,0.5200122523994282,0.2458476517754868,0.5145348837209303,0.458955223880597,0.421513470681458,0.3790208037430027
0.1830831408775981,0.2319706903200925,0.4058314566789143,0.7930101824352991,0.2459166190748144,0.2608230074957932,0.5422707780273637,0.2720504009163803,0.5275397796817626,0.466970702045329,0.4270602218700476,0.3849527947196925
0.1842956120092379,0.237418048592364,0.4166172810240606,0.7894569367840475,0.2419189034837236,0.2686247514150222,0.554931590769859,0.2857961053837342,0.5386321909424725,0.4718076285240464,0.4318541996830428,0.3899657448408388
0.1806581986143187,0.236261087543386,0.4211212516297262,0.7917904115400933,0.2362078812107367,0.269083677527918,0.545333877884419,0.2769186712485681,0.5334302325581395,0.468905472636816,0.4294374009508716,0.3880858885454089
0.1759237875288684,0.2297531816428847,0.4149579234324996,0.7975180313958421,0.2344945745288407,0.2619703227780327,0.5258321421278334,0.2481386025200458,0.5196603427172583,0.4612124562373319,0.42270206022187,0.3813601804662043
0.1714203233256351,0.2292711145391438,0.4230176603057959,0.7998515061518879,0.2261564820102798,0.2641884656570292,0.5274657953849294,0.2472794959908362,0.5199663402692778,0.4617652478348996,0.4227416798732171,0.3814437296348901
0.1796766743648961,0.2349112996529117,0.4199359962071826,0.7929571489181162,0.2358652198743575,0.2677068991892305,0.5404329181131304,0.2714776632302405,0.5321297429620563,0.468767274737424,0.428486529318542,0.3877516918706659
0.1862586605080831,0.2372252217508677,0.4121133104183951,0.7886614340263046,0.2460308395202741,0.2670185100198868,0.5437002246273228,0.2827892325315005,0.5401621787025703,0.4736042012161415,0.4320919175911252,0.3926810928231264
0.1825057736720554,0.23394716544543,0.411757733791632,0.7922146796775562,0.242604226156482,0.2642649533425119,0.5331835817847661,0.2633161512027491,0.5302172582619339,0.4678459554081445,0.4274564183835182,0.3880441139610661
0.1782332563510393,0.2310547628229849,0.413417091383193,0.7957148918116249,0.2375785265562536,0.2625057365764112,0.5180722891566264,0.2439862542955326,0.518359853121175,0.4610742583379399,0.4225435816164818,0.3829893892555769
0.1848729792147806,0.2341881989973004,0.4074908142704753,0.7909418752651676,0.246944603083952,0.2631176380602723,0.5149070859710025,0.245418098510882,0.5175948592411261,0.4614888520361157,0.4223851030110935,0.3838666555267774
0.1916859122401847,0.2402140377940609,0.4083204930662558,0.7845248196860416,0.2533409480296973,0.2680893376166437,0.5295078619562997,0.2611683848797251,0.5285342717258262,0.4685369449051041,0.4272187004754358,0.3900075194251817
0.1868360277136259,0.2420458927882761,0.4227806092212872,0.7857445905812472,0.2414620217018846,0.2742848401407373,0.540535021441699,0.2723367697594501,0.5344247246022031,0.4721300902892942,0.4301505546751189,0.3933494861726126
0.1765588914549654,0.2382375626687235,0.4346331634467227,0.7925859142978362,0.2255853797829812,0.2750497169955637,0.5311415152133959,0.2538659793814433,0.5267747858017136,0.4671088999447209,0.426188589540412,0.3900910685938675
0.1706697459584296,0.232259930582337,0.4319070759748725,0.7985787017394993,0.2211307824100514,0.2693896282698485,0.518378599142332,0.2310996563573883,0.5144583843329253,0.460936060438548,0.4200871632329636,0.3839502046954632
0.1691685912240185,0.2297049749325106,0.4287068863340049,0.8006470089096308,0.2212450028555111,0.2663301208505431,0.5190933224423115,0.2342497136311569,0.5159118727050184,0.4617191818684357,0.4198098256735341,0.3830729384242627
0.1733833718244803,0.2351523332047821,0.4334479080241791,0.7957148918116249,0.223072529982867,0.2722196726327061,0.5357361649989789,0.2585910652920962,0.5280752753977969,0.4684448129721761,0.4260697305863709,0.3879187902080374
0.1752886836027714,0.2376108754338604,0.4354628422425032,0.7934874840899447,0.2239862935465448,0.2748202539391158,0.545538084541556,0.2740549828178694,0.5339657282741738,0.4722222222222222,0.4300713153724247,0.3925139944857548
0.1677251732101616,0.2333204782105669,0.4405594405594405,0.7993211709800594,0.2140491147915477,0.2730610371730151,0.5379824382274863,0.2618843069873997,0.5270042839657283,0.4680302192740004,0.4276941362916007,0.3908012365276965
0.1630484988452656,0.227632086386425,0.436055469953775,0.8045714891811625,0.2116504854368932,0.2670949977053694,0.5239942822136001,0.2373997709049255,0.5149938800489596,0.4602911369080524,0.4215927099841521,0.3850781184727212
0.1682448036951501,0.2271982259930582,0.4244399668128482,0.8024501484938481,0.2222729868646488,0.2630411503747896,0.5253216254849908,0.2399770904925544,0.5155293757649939,0.4612124562373319,0.421513470681458,0.3853287659787784
0.1728060046189376,0.23394716544543,0.4316700248903639,0.7966164616037335,0.2233009708737864,0.2706899189230534,0.541760261384521,0.2654639175257732,0.5284577723378213,0.4692279344020638,0.4284072900158479,0.3922215723953546
0.1726327944572748,0.2386232163517161,0.4435225791157994,0.7941238862961391,0.2174757281553398,0.2781857121003518,0.5543189707984479,0.2790664375715922,0.5371022031823746,0.4739266629813894,0.433676703645008,0.3969838750104437
0.1687066974595843,0.2353451600462784,0.4435225791157994,0.7977831989817564,0.2135922330097087,0.2755851307939421,0.545538084541556,0.2594501718213058,0.5287637698898409,0.4683987470057122,0.4297147385103011,0.3918456011362686
0.1614896073903002,0.2302834554569996,0.4458930899608865,0.8038290199406024,0.2052541404911479,0.2723726480036714,0.5268531754135184,0.231672394043528,0.516141370869033,0.4613967201031878,0.4240095087163233,0.385871835575236
0.1610854503464203,0.2312957963748554,0.4492118051440085,0.8035108188375052,0.2033123929183324,0.2742083524552547,0.5252195221564223,0.2219358533791523,0.5117809057527539,0.4598765432098766,0.423217115689382,0.3854123151474642
0.1676096997690531,0.2401176243733127,0.4575085931018134,0.795661858294442,0.2057110222729869,0.2839222885115496,0.5416581580559525,0.2419816723940435,0.5228733170134638,0.4677998894416805,0.4293977812995246,0.3925139944857548
0.171189376443418,0.2465291168530659,0.4659239066018726,0.7904645736105218,0.2052541404911479,0.2917240324307786,0.5492138043700224,0.2491408934707903,0.527998776009792,0.4714851667587986,0.4331616481774961,0.3958141866488429
0.1680715935334873,0.2438295410721172,0.465686855517364,0.7933814170555792,0.2022844089091947,0.2895058895517821,0.5387992648560342,0.2336769759450171,0.5193543451652387,0.4664179104477612,0.4305863708399366,0.3926393182387835
0.1575057736720554,0.2386232163517161,0.4745762711864406,0.8011243105642766,0.1875499714448887,0.2882820865840599,0.5351235450275679,0.2253722794959907,0.5148408812729498,0.4622719734660034,0.4258716323296355,0.3875010443646085
0.1493071593533487,0.2429618202853837,0.5021927225317055,0.8025031820110309,0.166076527698458,0.3005966039467645,0.5672860935266489,0.2900916380297823,0.551484088127295,0.4773816104661876,0.4326465927099842,0.390258166931239
0.151905311778291,0.2554473582722715,0.527320137489629,0.7944420873992363,0.1565962307252998,0.3185712100351843,0.6309985705533999,0.4672107674684994,0.641217870257038,0.5198544315459739,0.455229793977813,0.4037513576739911
0.1556004618937644,0.2728981874276899,0.5627592746236814,0.7831459482392872,0.1431182181610508,0.3438886339299373,0.6909332244231162,0.6626575028636884,0.7468635250917993,0.5741201400405381,0.4895800316957211,0.4287743336953797
0.1622401847575058,0.3012919398380255,0.6189403816522461,0.7644781501909207,0.1226727584237579,0.3845800826067003,0.6792934449663058,0.7079037800687286,0.8008720930232557,0.6198636447392667,0.5331616481774961,0.4702147213635224
0.1887413394919168,0.3306016197454686,0.636600687448145,0.7361582520152736,0.1403769274700171,0.4134924277191372,0.6192566877680212,0.6497709049255441,0.8131119951040391,0.6673576561636264,0.5970285261489698,0.542401203108029
0.245554272517321,0.3631411492479753,0.5999762948915491,0.6921934662706831,0.2141633352370074,0.4274896741624598,0.5555442107412701,0.6320160366552119,0.8669675642594858,0.7581536760641239,0.7118066561014263,0.6720277383240036
0.3453810623556582,0.4050327805630544,0.4980443285528031,0.6232498939329656,0.3620788121073672,0.427872112589873,0.4773330610577905,0.6367411225658648,0.9461444308445532,0.8800442233278055,0.8636291600633914,0.8433870832985211
0.4368937644341802,0.4336675665252604,0.3805855161787365,0.5654963937208316,0.509194745859509,0.4126510631788282,0.3940167449458852,0.6006586483390607,0.9696297429620562,0.9514925373134328,0.9641838351822504,0.9609825382237448
0.4860277136258661,0.4403200925568839,0.2960768045513808,0.5392978362324989,0.5985151342090235,0.3906226097598287,0.3032468858484786,0.5038659793814433,0.8985618115055078,0.9323751612308828,0.9730190174326464,0.9843763054557608
0.4615473441108546,0.4404647126880062,0.3466872110939907,0.5504348748408994,0.5498572244431754,0.4071439498240783,0.2882376965489074,0.411368843069874,0.7775397796817625,0.8209876543209876,0.8748019017432648,0.8977358175286156
0.3999422632794457,0.4210856151176244,0.4255066966931374,0.5893614764531183,0.4509423186750429,0.4171638366223038,0.3402082907902797,0.2969644902634593,0.5835373317013464,0.6107886493458633,0.6699683042789224,0.7058651516417412
0.3189953810623557,0.3413035094485152,0.3955197345027853,0.6704497242257106,0.3853797829811537,0.3441945846718678,0.4777414743720645,0.2637457044673539,0.4000917992656059,0.3832688409802837,0.4239302694136291,0.4570139527111705
0.1903002309468822,0.2449865021210952,0.4228991347635415,0.7825625795502757,0.2448886350656768,0.2765794707052165,0.6672452521952216,0.3005441008018327,0.2711138310893513,0.1833425465266261,0.1904120443740095,0.2111705238532876
0.0569284064665127,0.182944465869649,0.5441507644897475,0.8779168434450572,0.0544831524842946,0.2665595839069909,0.8103941188482744,0.3329037800687285,0.2128977968176254,0.0763313064308089,0.0633518225039619,0.0749436043111371
0.0068706697459584,0.145102198225993,0.5538698589546047,0.9217225286380992,0.0003426613363792,0.2396359186171026,0.848274453747192,0.2784936998854525,0.1834455324357405,0.0602082181684172,0.0434627575277337,0.0462026902832316
0.0147228637413394,0.1423062090242962,0.5308759037572596,0.9196542214679676,0.0191890348372358,0.2299984702462903,0.9012660812742496,0.4558991981672394,0.2987301101591187,0.152201953196978,0.1143423137876386,0.1001336786698972
0.0403579676674364,0.1827998457385268,0.5778120184899845,0.8856067034365718,0.0219303255282696,0.2772678598745602,0.9304676332448436,0.6327319587628866,0.4436199510403917,0.2647871752349364,0.2084786053882726,0.1806333026986381
0.0733833718244804,0.2212688006170458,0.604598791039469,0.8492787441663131,0.0416904625928041,0.3164295548416704,0.8875842352460689,0.6940148911798395,0.508032435740514,0.3393219089736503,0.2822107765451664,0.2485170022558275
0.0971709006928406,0.2254627844195912,0.5661965153490577,0.8360203648705982,0.0837235865219874,0.3074040079547193,0.7746579538492955,0.6189862542955327,0.4787331701346389,0.3630919476690621,0.3178288431061806,0.2849862143871668
0.1152424942263279,0.215580408792904,0.504681758919047,0.8332095884599066,0.1312392918332382,0.2796389781245219,0.703083520522769,0.6331615120274913,0.4979345165238678,0.3919753086419753,0.3442947702060221,0.3088812766312975
0.1393764434180139,0.2140377940609332,0.4514637904468412,0.8229210861264318,0.1806967447173044,0.261281933608689,0.6724525219522156,0.6742554410080183,0.5589045287637698,0.4366132301455685,0.3777733755942948,0.3372879939844598
0.1584872979214781,0.2204974932510605,0.4279957330804788,0.8106173101400085,0.2109651627641348,0.2588343276732446,0.6350827036961404,0.575028636884307,0.5755048959608323,0.4627326331306431,0.4030110935023772,0.3605982120477901
0.1644919168591224,0.2313440030852294,0.4423373236932559,0.8018667798048366,0.2099371787549972,0.2720666972617409,0.6087400449254645,0.4616265750286369,0.5683139534883721,0.4683526810392482,0.4115689381933439,0.3697050714345392
0.1605080831408776,0.2295121480910142,0.4458930899608865,0.804730589732711,0.20434037692747,0.2717607465198103,0.5850520726975699,0.3854524627720503,0.5537025703794369,0.4638382163257785,0.4110142630744849,0.3685771576572813
0.1593533487297921,0.2246914770536059,0.4364110465805381,0.8079126007636827,0.2077669902912622,0.2648768548263729,0.5653461302838473,0.3450744558991981,0.5400856793145655,0.4584945642159573,0.4072107765451664,0.3636895312891636
0.1612586605080831,0.2251735441573467,0.4338034846509422,0.8067988969028426,0.210850942318675,0.2644179287134771,0.5664692668981008,0.3356242840778923,0.5400091799265606,0.4605675327068362,0.4084786053882726,0.3653187400785361
0.1695727482678984,0.2312957963748554,0.4317885504326182,0.7995863385659736,0.2201027984009138,0.2686247514150222,0.5798448029405758,0.3480813287514318,0.5503365973072215,0.4682605491063203,0.414540412044374,0.3722950956637981
0.173729792147806,0.2348630929425376,0.4320256015171269,0.7957148918116249,0.2241005139920046,0.2715312834633624,0.590055135797427,0.3528064146620847,0.5541615667074663,0.470609913395983,0.4175515055467512,0.3747180215556855
0.1651847575057737,0.2298013883532587,0.4370036742918099,0.8023971149766652,0.2132495716733295,0.269083677527918,0.577292219726363,0.3258877434135166,0.5423806609547124,0.4626405011977151,0.4116877971473852,0.3688278051633386
0.1595842956120092,0.2271982259930582,0.4421002726087472,0.8064276622825626,0.2052541404911479,0.2687012391005048,0.5638145803553195,0.2981099656357388,0.5297582619339045,0.4555463423622628,0.40459587955626,0.3629793633553346
0.1647806004618938,0.2308137292711145,0.4405594405594405,0.8020258803563852,0.2110793832095945,0.2710723573504666,0.5655503369409842,0.2986827033218786,0.5305997552019583,0.4566519255573982,0.4051505546751189,0.3631464616927061
0.1719399538106235,0.2369359814886232,0.4409150171862036,0.7953966907085278,0.2180468303826385,0.276044056906838,0.5796405962834388,0.3165807560137457,0.5410801713586292,0.4636078864934587,0.4113708399366085,0.3684936084885956
0.1769630484988452,0.240262244504435,0.4387815574256252,0.7912600763682648,0.2239862935465448,0.2779562490439039,0.5878088625689197,0.3263172966781214,0.5466646266829865,0.4654505251520177,0.4133518225039619,0.3708329852117971
0.1733256351039261,0.2357790204396452,0.4352257911579945,0.7953966907085278,0.222158766419189,0.273290500229463,0.5774964263835001,0.3071305841924399,0.5351132190942472,0.4577575087525336,0.4086370839936609,0.3655276130002506
0.1668591224018476,0.2287408407250289,0.431077397179092,0.8022380144251167,0.217818389491719,0.2664066085360257,0.5619767204410864,0.2763459335624284,0.5209608323133414,0.4489589091579141,0.401743264659271,0.3575486673907594
0.1654157043879908,0.2268125723100655,0.4292995140452768,0.8039350869749682,0.2172472872644203,0.2642649533425119,0.563304063712477,0.2674684994272622,0.5165238678090576,0.4478993919292428,0.3996038034865293,0.3557523602640154
0.1668013856812933,0.2320188970304666,0.4392556595946426,0.8004879083580823,0.2137064534551685,0.271607771148845,0.5824994894833572,0.2888029782359679,0.5278457772337821,0.455085682697623,0.404041204437401,0.360264015373047
0.1674364896073903,0.2330794446586965,0.4405594405594405,0.7995863385659736,0.2137064534551685,0.2729080618020498,0.5919950990402287,0.2966781214203894,0.5327417380660955,0.4564676616915423,0.4057844690966719,0.360974183306876
0.1611431870669746,0.2278731199382954,0.4406779661016949,0.8053139584217225,0.2075385494003427,0.2687777267859874,0.5853583826832754,0.2783505154639175,0.5221848225214197,0.449189238990234,0.3998019017432646,0.355167516083215
0.1520785219399538,0.2228114153490165,0.446722768756667,0.8122613491726771,0.19565962307253,0.2667125592779562,0.5746375331835818,0.2585910652920962,0.5078794369645042,0.4415422885572139,0.3927099841521395,0.348567131757039
0.1539838337182448,0.2250289240262244,0.448382126348228,0.8101930420025456,0.1966876070816676,0.2690071898424354,0.5795384929548703,0.2633161512027491,0.5097154222766217,0.4429242675511333,0.3929477020602219,0.3485253571726961
0.1632217090069284,0.2320188970304666,0.4466042432144126,0.8020789138735681,0.2066247858366648,0.2739788893988067,0.5949560955687154,0.2879438717067583,0.5233323133414932,0.4513543394140409,0.3987321711568938,0.3542902498120144
0.1633949191685912,0.2321635171615889,0.4466042432144126,0.8019728468392023,0.2068532267275842,0.2740553770842894,0.6015928119256687,0.2956758304696448,0.5278457772337821,0.4525981205085683,0.3997226624405706,0.3550839669145292
0.1547344110854503,0.2243540300809873,0.4451819367073604,0.8102460755197284,0.1989720159908624,0.2674009484472999,0.5930161323259138,0.2780641466208476,0.5180538555691555,0.4446287083103004,0.3940174326465928,0.3482747096666388
0.1470554272517321,0.2163517161588893,0.4412705938129667,0.8181480695799744,0.1932609937178755,0.2598286675845189,0.5752501531549928,0.25,0.5048194614443084,0.4354155150175051,0.3854992076069731,0.3398362436293758
0.148094688221709,0.2139895873505592,0.4333293824819249,0.8189435723377174,0.1980582524271845,0.2553923818265259,0.5775985297120686,0.2478522336769759,0.5028304773561811,0.4344941956882255,0.3835974643423138,0.3369955718940596
0.156986143187067,0.2187620516775935,0.4268104776579353,0.8122613491726771,0.2100513992004569,0.2570751109071439,0.5913824790688176,0.2637457044673539,0.5115514075887393,0.4402524414962226,0.387797147385103,0.3407135099005764
0.1621824480369515,0.2209795603548013,0.4215953537987436,0.8086550700042426,0.2177041690462593,0.2571515985926266,0.5961813355115376,0.270475372279496,0.5152233782129743,0.4412658927584301,0.3890649762282092,0.3420502965995488
0.1576789838337182,0.2160624758966448,0.418750740784639,0.8134280865507001,0.2146202170188464,0.2523328744072204,0.5833163161119053,0.2482817869415808,0.5054314565483476,0.4333886124930901,0.3821315372424723,0.3356587851950873
0.1500577367205543,0.2099402236791361,0.4193433684959109,0.8203224437844717,0.2068532267275842,0.2476671255927795,0.573105983255054,0.2177835051546391,0.4879895960832313,0.4225631103740557,0.3730586370839937,0.3257999832901662
0.1407043879907621,0.209843810258388,0.4383074552566078,0.8246711921934662,0.1883495145631068,0.2537096527459079,0.5836226260976107,0.2147766323024054,0.4873011015911872,0.421964252810024,0.3714342313787638,0.3239201269947364
0.1446304849884526,0.2143270343231778,0.441389119355221,0.8203754773016546,0.1907481439177613,0.2582224261893835,0.6004696753114152,0.231815578465063,0.4978580171358629,0.4269393771881334,0.3751188589540412,0.3262177291335951
0.1453233256351039,0.2149055148476668,0.4411520682707123,0.8197390750954603,0.1916619074814392,0.2586813523022793,0.6053706350827037,0.2353951890034364,0.5001529987760098,0.4269393771881334,0.3747226624405705,0.3256746595371376
0.1384526558891455,0.2102776706517547,0.4438781557425625,0.8254666949512092,0.1834380354083381,0.2558513079394217,0.5929140289973452,0.2094788087056128,0.486000611995104,0.4170351943983785,0.3665213946117274,0.3183223326927897
0.1307736720554272,0.2044446586964905,0.4454189877918691,0.8322019516334324,0.175214163335237,0.2517209729233593,0.5762711864406779,0.1821305841924398,0.4687882496940024,0.4071310116086236,0.3577258320126783,0.3096332191494694
0.1318706697459584,0.2059872734284612,0.4469598198411758,0.8308230801866779,0.1754426042261565,0.2534037020039773,0.5799469062691444,0.1781214203894616,0.4673347613219094,0.4076838032061913,0.3561806656101426,0.3077951374383825
0.1393764434180139,0.2111935981488623,0.4442337323693255,0.8245120916419176,0.1842375785265563,0.2566926724797307,0.5921993056973657,0.1947308132875143,0.4780446756425948,0.4137184448129722,0.3607369255150555,0.3114295262762135
0.1392609699769053,0.2120613189355958,0.446722768756667,0.8240878235044548,0.1829811536264992,0.2581459385039009,0.5988360220543189,0.1994558991981672,0.4811046511627907,0.4143173023770039,0.3611331220285261,0.3122232433787284
0.131581986143187,0.2080601619745468,0.4526490458693848,0.8298154433602036,0.1724728726442033,0.2569221355361786,0.5866857259546661,0.1722508591065292,0.4692472460220317,0.4050580431177447,0.3531695721077654,0.3039101010944941
0.1222863741339492,0.2036251446201311,0.4608273082849354,0.8365507000424267,0.1593375214163335,0.256004283310387,0.5727996732693484,0.1390320733104238,0.4522643818849449,0.394555002763958,0.3436608557844691,0.2953880858885453
0.1229214780600462,0.2055534130350944,0.4642645490103118,0.8351718285956725,0.1583095374071959,0.2586813523022793,0.5738207065550337,0.1365979381443298,0.4488984088127294,0.3941404090657822,0.342393026941363,0.2939677500208872
0.1295034642032332,0.211627458542229,0.4655683299751096,0.8288078065337292,0.1641347801256425,0.2639590026005813,0.5854604860118439,0.1453321878579611,0.4563188494492043,0.398378477980468,0.3466323296354992,0.2978527863647756
0.1329676674364896,0.2159660624758966,0.4692426217849946,0.8248302927450148,0.1658480868075386,0.2685482637295395,0.5845415560547274,0.1420389461626575,0.4577723378212974,0.3987009397457158,0.3477812995245642,0.2998161918288913
0.1272517321016166,0.2141824141920555,0.4765912054047647,0.8284365719134492,0.1565962307252998,0.2694661159553312,0.5674903001837859,0.1139747995418098,0.4455324357405141,0.3914225170444076,0.3420364500792393,0.2946361433703734
0.1195727482678984,0.2103740840725029,0.4831101102287543,0.8340581247348324,0.1459737292975443,0.2685482637295395,0.5511537676128242,0.0808991981672394,0.4319155446756426,0.3819329279528284,0.3352218700475436,0.2876597877851115
0.1235565819861432,0.2117238719629772,0.4781320374540714,0.831512515910055,0.1522558537978298,0.2680128499311611,0.5526853175413519,0.0751718213058419,0.4312270501835984,0.3823935876174682,0.3349049128367671,0.2878268861224831
0.1296189376443418,0.2154839953721558,0.4749318478132037,0.826633432329232,0.1597944031981725,0.2700015297537096,0.5663671635695323,0.0939289805269187,0.4430079559363525,0.3898562741846324,0.3402535657686212,0.2938424262678586
0.1286951501154734,0.2149055148476668,0.4754059499822211,0.827375901569792,0.1586521987435751,0.2696955790117791,0.5730038799264855,0.1096792668957617,0.451499388004896,0.3928505620047909,0.3426703645007924,0.2970590692622608
0.1256928406466513,0.2095545699961435,0.4684129429892141,0.8316716164616038,0.1589948600799543,0.2631941257457549,0.5617725137839493,0.0985108820160366,0.446297429620563,0.3871383821632578,0.3379160063391442,0.2935500041774584
0.1235565819861432,0.2073370613189356,0.467346213108925,0.8338990241832839,0.1575099942889777,0.2610524705522411,0.5542168674698794,0.0876288659793814,0.4418604651162791,0.3834991708126037,0.3344690966719493,0.2905004595204277
0.1297344110854503,0.2112900115696105,0.464383074552566,0.8289138735680951,0.1649343232438606,0.2632706134312376,0.563712477026751,0.1040950744558992,0.4501223990208078,0.3883360972913212,0.3386291600633914,0.2948450162920878
0.1351039260969977,0.2200636328576938,0.4749318478132037,0.8215952481968604,0.1651627641347801,0.2736729386568762,0.5880130692260568,0.1434707903780069,0.4717717258261933,0.4011885019347706,0.3483755942947702,0.3049544657030662
0.1396651270207852,0.2239683763979946,0.4750503733554581,0.8173525668222316,0.1697315819531696,0.2767324460761817,0.6001633653257096,0.167955326460481,0.4886780905752753,0.4098028376635342,0.3544770206022187,0.3101762887459269
0.1361431870669746,0.2179425376012341,0.4675832641934336,0.8222846839202376,0.1698458023986293,0.2695426036408138,0.5966918521543803,0.1743986254295532,0.4947215422276621,0.4115533443891653,0.3561014263074485,0.3110117804327847
0.1304849884526559,0.2178461241804859,0.4789617162498519,0.8249363597793805,0.1587664191890349,0.2731375248584978,0.5942413722687359,0.1752577319587629,0.4966340269277845,0.4119679380873411,0.3566164817749604,0.3097585429024981
0.1333140877598152,0.2256074045507135,0.4922365769823396,0.8193678404751803,0.1551113649343233,0.2836163377696191,0.6119052481110884,0.197737686139748,0.5094859241126071,0.4186935691910816,0.3612123613312203,0.3152310134514162
0.1408775981524249,0.2319224836097185,0.492355102524594,0.8124204497242257,0.1625356938892062,0.2886645250114731,0.6484582397386154,0.2371134020618556,0.5327417380660955,0.4322830292979547,0.3720285261489698,0.3252569136937087
0.1425519630484988,0.2379001156961049,0.5036150290387579,0.8083368689011455,0.1587664191890349,0.2970781704145632,0.6637737390238921,0.254438717067583,0.5468941248470012,0.4397457158651189,0.3778129952456418,0.3316066505138274
0.1350461893764434,0.2363575009641342,0.5152305321796847,0.8126325837929571,0.1457452884066248,0.2996022640354903,0.6550949560955687,0.224942726231386,0.5410036719706243,0.4348627234199374,0.3748019017432646,0.3287659787785111
0.1263856812933025,0.2365503278056305,0.5333649401446011,0.8165570640644888,0.1283837806967447,0.305568303503136,0.6479477230957729,0.1902920962199312,0.5333537331701346,0.4314999078680671,0.3731378763866878,0.3264266020553095
0.1344110854503464,0.2449865021210952,0.537631859665758,0.8082308018667798,0.134323243860651,0.3135995104788128,0.6501939963242802,0.177119129438717,0.5376376988984088,0.4367514280449604,0.3782091917591125,0.3318572980198847
0.1497690531177829,0.2592074816814501,0.5410691003911342,0.7933283835383962,0.1478012564249,0.3259905155270001,0.658770675924035,0.1898625429553264,0.5540085679314566,0.451124009581721,0.3897781299524564,0.3446403208288077
0.160161662817552,0.2686559969147705,0.542965509067204,0.7833580823080186,0.1572815533980583,0.3340982101881597,0.6448846232387175,0.2003150057273768,0.5668604651162791,0.4626405011977151,0.4000792393026941,0.3560030077700726
0.1649538106235566,0.2725125337446973,0.5426099324404409,0.7790093338990242,0.1620788121073672,0.3370812299219825,0.5978149887686338,0.183991981672394,0.5662484700122399,0.4646674037221301,0.4041204437400951,0.360639986632133
0.1730369515011547,0.2738623216351716,0.529335071707953,0.7745545184556639,0.1765848086807538,0.3338687471317118,0.5477843577700633,0.1754009163802978,0.5632649938800489,0.4678920213746084,0.408161648177496,0.3647756704820787
0.1896651270207852,0.2771885846509834,0.5033779779542491,0.765114552397115,0.2054825813820674,0.328132170720514,0.5068409230140902,0.1965922107674685,0.5721389228886169,0.4779804680302193,0.4193343898573692,0.3755117386582003
0.2089491916859122,0.2798881604319321,0.4704278772075382,0.7547730165464573,0.240434037692747,0.3196420376319412,0.4954053502144169,0.2511454753722794,0.5952417380660955,0.4947484798231067,0.434270998415214,0.3899657448408388
0.2142609699769053,0.276995757809487,0.4524119947848761,0.7539244802715316,0.254368932038835,0.3115343429707817,0.500612619971411,0.3005441008018327,0.613984088127295,0.5051593882439654,0.4444928684627575,0.3998245467457598
0.2134526558891455,0.2718376397994601,0.441389119355221,0.757159524819686,0.2588235294117648,0.3038855744225179,0.4858076373289769,0.3095647193585338,0.6138310893512852,0.5055279159756771,0.4454041204437401,0.401620853872504
0.2137990762124711,0.2715483995372156,0.4399668128481688,0.7571064913025032,0.2599657338663621,0.3031971852531742,0.4781498876863385,0.3140034364261168,0.6124541003671969,0.5060807075732449,0.4463153724247227,0.4030829643245049
0.2221131639722864,0.2697165445430003,0.418395164157876,0.7543487484089945,0.2784694460308395,0.2947835398500841,0.4877476005717786,0.3495131729667812,0.6263769889840882,0.5159848903629998,0.4560221870047544,0.4131088645667976
0.2301963048498845,0.2761762437331276,0.4175654853620955,0.7470301230377598,0.2869217589948601,0.2996022640354903,0.5075556463140698,0.390750286368843,0.6451958384332925,0.5295282845034089,0.468026941362916,0.4252652686105773
0.2323903002309469,0.2760316236020054,0.4128244636719212,0.7461285532456512,0.2913763563677899,0.2979960226403549,0.5149070859710025,0.3983390607101947,0.6464963280293757,0.5327529021558873,0.471553090332805,0.428649009942351
0.2267898383371824,0.2684631700732742,0.4057129311366599,0.7528638099278744,0.2892061679040548,0.2897353526082301,0.5012252399428221,0.3731386025200458,0.62874847001224,0.5226644555002764,0.4654912836767037,0.423176539393433
0.2210161662817552,0.2609911299652911,0.3991940263126704,0.7595990666100976,0.2866933181039406,0.2816276579470705,0.4879518072289157,0.3536655211912943,0.6142900856793146,0.5148332412014005,0.4602614896988907,0.4184977859470298
0.2247113163972287,0.2622927111453914,0.3949271067915135,0.7572125583368688,0.2924043403769275,0.28132170720514,0.4947927302430058,0.361254295532646,0.6142900856793146,0.5179196609544868,0.4613312202852615,0.4204611914111454
0.2289260969976905,0.2666795217894331,0.3968235154675833,0.7528638099278744,0.2957167332952599,0.2853755545357197,0.5119460894425159,0.3831615120274914,0.6236230110159118,0.5245992260917635,0.4671156893819335,0.4265602807252067
0.2252309468822171,0.2642209795603548,0.3984828730591443,0.7559397539244802,0.2911479154768704,0.2839987761970323,0.5178680824994895,0.3888888888888889,0.6234700122399021,0.523585774829556,0.4675515055467512,0.4275210961650931
0.2191685912240185,0.2581951407635943,0.3961123622140571,0.7620386084005091,0.2863506567675614,0.2784151751567997,0.503982029814172,0.3641179839633447,0.6069461444308445,0.5128524046434495,0.460499207606973,0.4200852201520595
0.2179561200923787,0.2552063247204011,0.3912528149816285,0.7642129826050064,0.2874928612221588,0.2745143031971852,0.4917296303859505,0.3455040091638029,0.5951652386780906,0.5056200479086052,0.455229793977813,0.4141114545910268
0.2211316397228637,0.2582915541843424,0.3923195448619176,0.7610309715740348,0.2901199314677328,0.2773443475600428,0.4959158668572595,0.3519473081328751,0.5980722154222766,0.5074166206007003,0.4567353407290016,0.4157824379647422
0.2236143187066974,0.2629193983802545,0.3986013986013985,0.7573716588884174,0.289548829240434,0.283004436285758,0.5092914028997345,0.3745704467353952,0.6077876376988984,0.5128063386769854,0.4607369255150555,0.4207118389172027
0.2214780600461894,0.2591110682607019,0.3936233258267156,0.7604476028850232,0.2898914905768133,0.2784151751567997,0.5174596691852154,0.3813001145475372,0.608782129742962,0.513681592039801,0.4597068145800317,0.4199181218146879
0.2168013856812933,0.2496625530273814,0.380111414009719,0.767766228256258,0.2917190177041691,0.2665595839069909,0.5104145395139881,0.3621134020618556,0.5975367197062423,0.5066334991708127,0.4522583201267829,0.4124404712173113
0.2086027713625866,0.2449382954107211,0.3850894867844021,0.7741832838353839,0.2812107367218733,0.2643414410279944,0.5038799264856034,0.3462199312714776,0.586750305997552,0.4984798231066888,0.4459587955625991,0.405631213969421
0.2087759815242494,0.249421519475511,0.3958753111295484,0.7716376750106066,0.2761850371216448,0.2714547957778797,0.5069430263426588,0.3460767468499426,0.5856028151774786,0.4944720840243229,0.4428684627575278,0.4027487676497618
0.2077944572748268,0.255736598534516,0.413417091383193,0.7686147645311837,0.2667047401484866,0.2820865840599663,0.5201143557279967,0.3629725085910652,0.592640758873929,0.4967293163810578,0.4446513470681458,0.4044197510234773
0.2064665127020785,0.2551099112996529,0.4146023468057366,0.7695693678404751,0.2648772130211309,0.2819336086890011,0.5297120686134368,0.3767182130584192,0.5959302325581395,0.4982494932743689,0.4450079239302694,0.4043362018547915
0.1965935334872979,0.2450829155418434,0.4102169017423254,0.7795927025880356,0.2572244431753284,0.2726021110601193,0.5254237288135593,0.3652634593356242,0.5892747858017136,0.4935968306615073,0.4396988906497623,0.3978193666973013
0.1880484988452656,0.2386714230620902,0.4119947848761408,0.7870704285108188,0.2478583666476299,0.2680893376166437,0.518787012456606,0.3540950744558991,0.5821603427172583,0.4884374424175419,0.4340729001584786,0.3915114044615256
0.1893764434180139,0.2441669880447358,0.4227806092212872,0.7834111158252015,0.2439748715019989,0.2759675692213553,0.522973248927915,0.3595360824742268,0.5852968176254589,0.4892205638474296,0.4355388272583201,0.3927646419918122
0.1939376443418014,0.2495179328962591,0.4265734265734265,0.7783729316928298,0.2467161621930325,0.2813981948906226,0.5335919950990402,0.3805841924398625,0.5973837209302325,0.4944720840243229,0.4401347068145801,0.3982788871250731
0.1908775981524249,0.2498071731585036,0.4334479080241791,0.7796457361052185,0.240434037692747,0.283845800826067,0.5396160914845823,0.3939003436426116,0.6041921664626684,0.4990326147042566,0.4423137876386688,0.4003676163422174
0.1868360277136259,0.2443598148862321,0.4284698352494963,0.7844717861688586,0.2388349514563107,0.2778797613584213,0.5343067183990198,0.3838774341351661,0.6016676866585068,0.4977888336097291,0.4397385103011093,0.3975687191912441
0.1863741339491917,0.2391534901658311,0.4166172810240606,0.7875477301654645,0.2439748715019989,0.269925042068227,0.523585868899326,0.3661225658648339,0.5916462668298653,0.4924451814999079,0.4347068145800317,0.3921380232266688
0.1893187066974596,0.2427689934438874,0.4194618940381652,0.7842066185829444,0.2455739577384352,0.2737494263423589,0.5219522156422299,0.3674112256586483,0.5946297429620563,0.4931822369633315,0.4355388272583201,0.3931406132508981
0.1957852193995381,0.2506748939452372,0.4256252222353917,0.7768879932117098,0.2490005711022273,0.2820100963744837,0.5295078619562997,0.3865979381443298,0.6063341493268054,0.4990786806707205,0.4414421553090333,0.3996992229927312
0.1987875288683603,0.2503856536829927,0.418750740784639,0.775668222316504,0.2552826956025129,0.2795624904390393,0.5342046150704512,0.3921821305841924,0.6100826193390453,0.5028560899207666,0.4437400950871633,0.403417160999248
0.1874133949191686,0.2432992672580023,0.4246770178973569,0.7847899872719558,0.2411193603655054,0.2758145938503901,0.5276700020420665,0.3737113402061855,0.6005201958384332,0.4988022848719367,0.4381537242472266,0.3977775921129585
0.1777713625866051,0.2413227921326649,0.43972976176366,0.7903054730589733,0.224328954882924,0.2791035643261434,0.5197059424137227,0.3559564719358533,0.5931762545899633,0.494149622259075,0.4339540412044375,0.3936001336786698
0.1817551963048499,0.2496143463170073,0.4518193670736043,0.78394145099703,0.2225014277555682,0.2895823772372647,0.5248111088421482,0.3666953035509736,0.5986077111383109,0.4968675142804497,0.437757527733756,0.3976940429442727
0.1859122401847575,0.257423833397609,0.4624866658764964,0.7777365294866355,0.2214734437464306,0.2992963132935597,0.5382887482131917,0.3891752577319587,0.6122246022031823,0.5052975861433573,0.4457210776545166,0.4059236360598212
0.1862009237875289,0.2582433474739684,0.4639089723835486,0.7771531607976241,0.2211307824100514,0.3003671408903166,0.5419644680416581,0.3987686139747995,0.6189565483476132,0.5108715680854984,0.449960380348653,0.4100593199097669
0.1748845265588914,0.2505302738141149,0.4681758919047055,0.786593126856173,0.2078812107367219,0.2956249043903931,0.5334898917704717,0.3860252004581901,0.6126835985312118,0.509812050856827,0.4484944532488114,0.4076363940178795
0.1727482678983834,0.2479271114539144,0.4661609576863814,0.7889796351294017,0.2066247858366648,0.2929478353985008,0.5239942822136001,0.3722794959908361,0.605875152998776,0.5085222037958357,0.4467115689381933,0.4059236360598212
0.1803695150115473,0.2556883918241419,0.4695981984117577,0.7811837081035213,0.2125642490005711,0.3001376778338687,0.5285889319991831,0.3813001145475372,0.6108476132190943,0.5123456790123457,0.4501584786053883,0.4101846436627955
0.1872401847575058,0.2634014654839954,0.474339220101932,0.7738120492151039,0.2171330668189606,0.3077864463821324,0.54114764141311,0.4004868270332187,0.6215575275397797,0.5188870462502304,0.4561806656101426,0.4169939009106859
0.1846997690531178,0.2633532587736213,0.4795543439611236,0.7750318201103097,0.2119931467732724,0.3094691754627505,0.5479885644272003,0.40893470790378,0.6246940024479803,0.5230329832319882,0.4595087163232964,0.4202940930737739
0.1764434180138568,0.2564114924797532,0.4793172928766149,0.7826156130674585,0.2039977155910908,0.3038855744225179,0.5401266081274249,0.3911798396334479,0.6161260709914321,0.519624101713654,0.4566164817749604,0.4173698721697719
0.1741916859122402,0.2536637099884303,0.4774208842005452,0.7851612218922359,0.2026270702455739,0.301132017745143,0.5299162752705738,0.3711340206185566,0.6063341493268054,0.5135433941404091,0.4520998415213946,0.4133595120728549
0.1770785219399538,0.2584361743154647,0.4831101102287543,0.7811837081035213,0.2027412906910337,0.3067156187853755,0.5314478251991014,0.3689862542955326,0.6053396572827417,0.5138658559056569,0.4533280507131538,0.4143203275127412
0.183256351039261,0.2672580023139221,0.4921180514400853,0.7735468816291896,0.2045688178183895,0.3165825302126357,0.540535021441699,0.3808705612829324,0.6092411260709915,0.5187027823843744,0.4583201267828843,0.4201687693207452
0.1829099307159353,0.2680293096799074,0.4948441389119355,0.7732817140432753,0.2029697315819532,0.3181122839222884,0.5437002246273228,0.3802978235967926,0.6083996328029375,0.5198544315459739,0.4599841521394612,0.422800568134347
0.1751154734411085,0.2601234091785576,0.4911698471020505,0.7811837081035213,0.1970302684180468,0.3106164907449901,0.5340004084133143,0.3571019473081329,0.5951652386780906,0.5125299428782016,0.4538034865293185,0.4174534213384577
0.1726327944572748,0.2553509448515233,0.4846509422780609,0.7849490878235044,0.1977155910908053,0.3047269389628269,0.5246069021850113,0.3320446735395188,0.5813953488372093,0.5046987285793256,0.4475039619651347,0.4108948115966246
0.172459584295612,0.2590628615503278,0.4941329856584094,0.7829868476877385,0.1929183323814963,0.3107694661159553,0.5290994486420257,0.3364833906071019,0.5817778457772338,0.5049290584116455,0.4483359746434232,0.4119391762051967
0.1776558891454965,0.2651369070574624,0.4985184307218205,0.7772592278319898,0.1958880639634495,0.3169649686400489,0.5452317745558505,0.3539518900343643,0.5891982864137086,0.5085222037958357,0.4521790808240887,0.4156571142117136
0.1808314087759815,0.2638353258773621,0.488680810714709,0.7765167585914298,0.2038834951456311,0.3128346336239865,0.5570757606697978,0.3701317296678121,0.5943237454100367,0.5110558319513544,0.4543185419968304,0.4167432534046286
0.1778290993071593,0.2558330119552642,0.4750503733554581,0.7822974119643614,0.207424328954883,0.3020498699709347,0.5564631406983868,0.3631156930126002,0.5872858017135862,0.5075548185000922,0.4502377179080825,0.4129835408137689
0.1782332563510393,0.2550134978789047,0.4723242858836079,0.7825625795502757,0.209137635636779,0.3005201162612819,0.5587094139268939,0.3542382588774341,0.5806303549571603,0.5045144647134697,0.4467115689381933,0.4091820536385663
0.1833718244803695,0.2628711916698804,0.4810951760104303,0.7758803563852354,0.2100513992004569,0.3095456631482331,0.5716765366550949,0.3669816723940435,0.5873623011015912,0.5071862907683804,0.4497622820919176,0.4116885286991394
0.1875866050808314,0.2707288854608561,0.4917624748133222,0.769622401357658,0.2090234151913192,0.3192595992045281,0.5937308556258933,0.393184421534937,0.6003671970624236,0.5132669983416253,0.4561014263074485,0.4175787450914863
0.1855080831408776,0.2686077902043964,0.4908142704752873,0.7717437420449724,0.207424328954883,0.3172709193819795,0.6106800081682663,0.4102233676975944,0.6082466340269278,0.517551133222775,0.4586370839936609,0.4194586013869161
0.1814087759815242,0.2587736212880833,0.4750503733554581,0.7790623674162069,0.2109651627641348,0.3043445005354138,0.6137431080253216,0.4049255441008018,0.60296817625459,0.5150635710337204,0.4549524564183835,0.4150304954465703
0.1745958429561201,0.2472522175086772,0.4605902572004267,0.788502333474756,0.2111936036550542,0.2905767171485391,0.6216050643250969,0.399914089347079,0.5971542227662179,0.5089828634604754,0.4506339144215531,0.4100593199097669
0.1745381062355658,0.2554473582722715,0.4808581249259215,0.7840475180313958,0.2013706453455169,0.3035796236805874,0.6385542168674698,0.4019186712485681,0.5953947368421052,0.5074166206007003,0.4490887480190174,0.4085972094577658
0.1785796766743649,0.2625337446972619,0.4902216427640156,0.7782668646584642,0.2007995431182181,0.312299219825608,0.6610169491525423,0.4085051546391752,0.6038096695226438,0.5111940298507462,0.4532091917591125,0.4123569220486255
0.1741916859122402,0.2616660239105283,0.4970961242147682,0.7807594399660586,0.1932609937178755,0.3138289735352608,0.6730651419236267,0.3989117983963345,0.6009791921664627,0.5094435231251152,0.45229793977813,0.4130253153981117
0.1631639722863741,0.2541939838025453,0.5012445181936708,0.7899342384386933,0.1803540833809252,0.3092397124063025,0.6782724116806207,0.3622565864833906,0.5840728274173806,0.5001842638658559,0.4446117274167987,0.4064249310719358
0.1514434180138568,0.2474932510605476,0.5088301528979495,0.7990029698769622,0.1650485436893204,0.3063331803579623,0.6742903818664487,0.3188717067583047,0.5651009791921665,0.4900958172102451,0.4362519809825674,0.3976104937755869
0.1576789838337182,0.2562186656382569,0.5173639919402632,0.7913131098854476,0.1671045117075957,0.3160471164142573,0.6772513783949357,0.3071305841924399,0.5632649938800489,0.4904643449419569,0.4371236133122028,0.3985713092154733
0.166108545034642,0.2663420748168145,0.5250681521867963,0.7819261773440814,0.1716733295259851,0.3265259293253786,0.6710230753522564,0.3092783505154639,0.5680844553243574,0.4939192924267552,0.4419968304278922,0.4040437797643913
0.1731524249422633,0.2687524103355187,0.516652838686737,0.7773122613491726,0.1827527127355797,0.3257610524705522,0.6438635899530324,0.3028350515463917,0.5667074663402693,0.4954394693200664,0.4438985736925515,0.4067591277466789
0.1761547344110854,0.2642209795603548,0.499348109517601,0.7784259652100127,0.1940605368360936,0.3165060425271531,0.5928119256687768,0.2739117983963345,0.5530905752753978,0.4908789386401327,0.4392630744849445,0.4023727963906759
0.1796189376443418,0.2581951407635943,0.4773023586582909,0.780176071277047,0.2081096516276414,0.3046504512773443,0.5387992648560342,0.2531500572737686,0.5383261933904528,0.4853049566979915,0.4345483359746435,0.3984042108781017
0.1884526558891455,0.2576166602391053,0.4577456441863221,0.776410691557064,0.2262707024557396,0.2979195349548723,0.5126608127424954,0.2650343642611684,0.5380966952264382,0.486364473926663,0.4356180665610142,0.4006600384326176
0.1986720554272517,0.2587254145777092,0.4394927106791514,0.7711073398387781,0.245231296402056,0.2928713477130182,0.5218501123136614,0.3099942726231386,0.5503365973072215,0.4934125667956514,0.4405705229793978,0.4059236360598212
0.2016743648960739,0.2529406093328191,0.4191063174114021,0.7729104794229953,0.2580239862935466,0.2817041456325531,0.5221564222993669,0.3277491408934708,0.5523255813953488,0.4953473373871384,0.4410459587955626,0.4064249310719358
0.1970554272517321,0.2447454685692248,0.4084390186085102,0.7795396690708527,0.2585950885208453,0.2717607465198103,0.5114355727996732,0.3215922107674684,0.5428396572827417,0.4904182789754929,0.4361331220285261,0.4020385997159328
0.1924364896073903,0.2403586579251832,0.4070167121014578,0.7841005515485786,0.2547115933752142,0.2678598745601958,0.500816826628548,0.3118556701030928,0.5337362301101591,0.4861802100608071,0.4321711568938193,0.3984042108781017
0.1965357967667436,0.2452757423833397,0.4108095294535973,0.7795396690708527,0.2568817818389492,0.2729845494875325,0.5078619562997754,0.3205899198167239,0.5364137086903304,0.4879767827529022,0.4334786053882726,0.3999080959144456
0.2036374133949192,0.2505302738141149,0.4091501718620363,0.7733347475604582,0.2646487721302114,0.2765794707052165,0.5203185623851337,0.3337628865979381,0.5439106487148103,0.4917081260364843,0.4368462757527733,0.4038349068426769
0.1964203233256351,0.2480235248746626,0.4176840109043499,0.7780547305897326,0.2534551684751571,0.2773443475600428,0.528180518684909,0.3406357388316151,0.5444461444308445,0.4923991155334439,0.4376782884310618,0.4054641156320494
0.1903002309468822,0.2404068646355573,0.4116392082493778,0.7850551548578701,0.2502569960022844,0.2693131405843659,0.518991219113743,0.3190148911798396,0.531594247246022,0.4855813524967754,0.430784469096672,0.3982788871250731
0.1867205542725173,0.2385750096413421,0.4143652957212279,0.7877068307170131,0.2454597372929755,0.2687777267859874,0.5117418827853788,0.3014032073310423,0.523485312117503,0.4808826239174498,0.4267828843106181,0.3943938507811847
0.1905311778290993,0.2449382954107211,0.4223065070522698,0.78245651251591,0.2453455168475157,0.2764264953342512,0.5192975290994486,0.3056987399770905,0.5277692778457772,0.4830016583747927,0.4297939778129953,0.3973180716851867
0.1964780600461894,0.2527959892016969,0.4295365651297854,0.7754030547305897,0.2477441462021702,0.2849931161083066,0.531958341841944,0.3205899198167239,0.5370257037943696,0.4882531785516861,0.4353011093502377,0.4020385997159328
0.1937066974595843,0.2503856536829927,0.4291809885030224,0.7780016970725498,0.245231296402056,0.2829279486002753,0.5362466816418214,0.3241695303550973,0.535189718482252,0.4874700571217984,0.4352614896988906,0.4018715013785612
0.1859699769053118,0.2401658310836869,0.4198174706649283,0.7871764955451845,0.242147344374643,0.2717607465198103,0.5236879722278945,0.3016895761741122,0.5231028151774786,0.4796388428229224,0.4283676703645008,0.3942267524438132
0.1842956120092379,0.2376590821442345,0.4172099087353324,0.7893508697496817,0.2416904625928041,0.2690071898424354,0.5174596691852154,0.2899484536082474,0.5166768665850673,0.4748940482771329,0.4242472266244057,0.390968334865068
0.1868360277136259,0.2415638256845353,0.4215953537987436,0.7860097581671617,0.2420331239291833,0.2734434756004283,0.5234837655707575,0.2959621993127148,0.521266829865361,0.4763220932375162,0.4263074484944533,0.3932659370039268
0.1905311778290993,0.2467219436945622,0.4266919521156809,0.7815019092066186,0.2432895488292404,0.2791800520116261,0.5348172350418623,0.308991981672394,0.5289167686658507,0.480514096185738,0.4305071315372425,0.3975687191912441
0.1874133949191686,0.2465291168530659,0.4326182292283986,0.7829868476877385,0.2373500856653341,0.2810157564632094,0.5412497447416785,0.3107101947308133,0.5299877600979193,0.4821264050119772,0.4322107765451664,0.3975269446069011
0.1790993071593533,0.2397801774006942,0.4330923313974161,0.7905706406448875,0.2288977727013136,0.2757381061649074,0.5318562385133755,0.2945303550973654,0.52203182374541,0.4778883360972913,0.4274960380348653,0.392096248642326
0.1747690531177829,0.2365985345160046,0.4341590612777053,0.7942829868476877,0.2241005139920046,0.2735964509713935,0.5269552787420869,0.2835051546391752,0.5157588739290085,0.4738805970149254,0.423851030110935,0.3893391260756955
0.1782909930715935,0.2435885075202468,0.4441152068270713,0.7888205345778532,0.2227298686464877,0.2823925348018968,0.5374719215846436,0.2948167239404353,0.5228733170134638,0.4773816104661876,0.4274960380348653,0.3925557690700977
0.1857390300230947,0.2521693019668338,0.4499229583975346,0.7806533729316928,0.2272986864648772,0.2910356432614349,0.5490095977128854,0.3117124856815578,0.5327417380660955,0.482494932743689,0.4332012678288431,0.39794469045033
0.1795612009237875,0.2493733127651369,0.4557307099679981,0.7850551548578701,0.2185037121644775,0.2907296925195043,0.5510516642842557,0.3151489117983963,0.5349602203182374,0.4842454394693201,0.4345879556259905,0.3991143788119308
0.1747113163972286,0.2410817585807944,0.4453004622496148,0.7918434450572761,0.2187321530553969,0.2807098057212788,0.5389013681846028,0.2935280641466208,0.5240208078335373,0.4778422701308274,0.4282091917591125,0.3938090066003843
0.1740762124711316,0.2377554955649826,0.4384259807988621,0.7939647857445905,0.2213592233009709,0.2758910815358727,0.5285889319991831,0.279495990836197,0.5166768665850673,0.4741569928137092,0.4246434231378764,0.3914278552928398
0.1804272517321016,0.2411299652911685,0.4338034846509422,0.7891917691981332,0.2299257567104512,0.2770383968181122,0.5309373085562589,0.2850801832760595,0.5192013463892289,0.4754007739082366,0.4266244057052298,0.3936419082630128
0.1870669745958429,0.2452275356729656,0.4300106672988029,0.7838884174798473,0.238263849229012,0.2791035643261434,0.5360424749846844,0.2933848797250858,0.525015299877601,0.4776580062649714,0.4303090332805072,0.3963990308296433
0.1868360277136259,0.2439741612032394,0.4276401564537158,0.7846839202375901,0.2391776127926899,0.2773443475600428,0.5346130283847254,0.2938144329896907,0.5247858017135862,0.4784871936613231,0.4303882725832013,0.3976940429442727
0.1854503464203233,0.2383821827998457,0.4166172810240606,0.7883962664403903,0.243061107938321,0.2693896282698485,0.5230753522564835,0.2754868270332187,0.5145348837209303,0.4729592776856459,0.4262282091917591,0.3932241624195839
0.1860854503464203,0.2390570767450829,0.4168543321085694,0.787759864234196,0.2436322101656196,0.269925042068227,0.5151112926281396,0.2601660939289805,0.5075734394124847,0.4689515386032799,0.4237717908082409,0.3901746177625533
0.1867205542725173,0.2458542229078287,0.43238117814389,0.7837293169282986,0.2367789834380354,0.2803273672938657,0.5253216254849908,0.2670389461626574,0.5111689106487148,0.4709784411276949,0.426188589540412,0.3933077115882696
0.1868360277136259,0.2522175086772079,0.4479080241792106,0.7801230377598642,0.2293546544831525,0.2904237417775738,0.5370635082703695,0.2793528064146621,0.5178243574051408,0.4752165100423807,0.4300713153724247,0.3969003258417579
0.1842956120092379,0.2505302738141149,0.4488562285172454,0.7822443784471786,0.2263849229011993,0.2893529141808169,0.5377782315703492,0.2832187857961054,0.518359853121175,0.4756771697070205,0.4305863708399366,0.3974016208538725
0.1781177829099307,0.2413227921326649,0.4390186085101339,0.7901463725074247,0.2250142775556824,0.2789505889551782,0.5268531754135184,0.2660366552119129,0.5082619339045288,0.4697807259996315,0.4248811410459588,0.391344306124154
0.1803695150115473,0.2423833397608947,0.4368851487495555,0.7885553669919388,0.2283266704740149,0.2790270766406608,0.5208290790279763,0.2568728522336769,0.5023714810281518,0.4664639764142252,0.4218304278922345,0.3885454089731807
0.1848152424942263,0.2478306980331662,0.4411520682707123,0.7835171828595673,0.2306110793832096,0.2847636530518586,0.5268531754135184,0.2660366552119129,0.5063494492044064,0.4691818684355998,0.4250792393026942,0.3910936586180967
0.1909353348729792,0.2545314307751639,0.445063411165106,0.7769940602460755,0.2348372358652199,0.2913415940033654,0.5376761282417807,0.2793528064146621,0.5149173806609547,0.4741569928137092,0.4297543581616482,0.3961483833235859
0.1876443418013857,0.2498553798688777,0.4403223894749318,0.7810776410691557,0.233923472301542,0.2860639437050635,0.5361445783132529,0.2737686139747995,0.5135403916768666,0.4735120692832136,0.428526148969889,0.3955217645584427
0.1767898383371824,0.2386232163517161,0.4349887400734858,0.7922677131947391,0.2256996002284409,0.2754321554229769,0.5219522156422299,0.2507159221076747,0.5008414932680538,0.4660493827160494,0.4212361331220285,0.3883365360514663
0.1758083140877598,0.2389124566139606,0.437714827545336,0.7925328807806533,0.2234151913192462,0.2765794707052165,0.5156218092709822,0.2378293241695303,0.4939565483476132,0.462916896996499,0.4185419968304279,0.3866237780934079
0.1804272517321016,0.2458542229078287,0.4453004622496148,0.786593126856173,0.224328954882924,0.2845341899954107,0.5227690422707779,0.2468499427262314,0.4996175030599755,0.4659111848166575,0.4221870047543582,0.3900910685938675
0.1853926096997691,0.251735441573467,0.4495673817707716,0.7810776410691557,0.2271844660194175,0.2905767171485391,0.5349193383704308,0.2580183276059565,0.50734394124847,0.4696885940667035,0.4258716323296355,0.3936001336786698
0.1825635103926097,0.2497589664481296,0.4505155861088064,0.7834641493423843,0.2239862935465448,0.2892764264953342,0.5344088217275883,0.2504295532646048,0.5037484700122399,0.4682144831398563,0.4244849445324881,0.3920544740579831
0.1751732101616628,0.2422869263401465,0.4473153964679388,0.7909418752651676,0.2181610508280982,0.2823925348018968,0.518991219113743,0.2222222222222222,0.488984088127295,0.4607978625391561,0.4181061806656101,0.3854540897318071
0.1713625866050808,0.2392016968762051,0.4476709730947019,0.7944420873992363,0.2141633352370074,0.2800214165519351,0.5147028793138656,0.2114833906071019,0.4858476132190942,0.4582181684171734,0.4164025356576862,0.3839919792798061
0.1736720554272517,0.2432028538372541,0.4526490458693848,0.791154009333899,0.2140491147915477,0.2848401407373412,0.5263426587706759,0.2253722794959907,0.4931915544675642,0.4617191818684357,0.4194532488114104,0.3877934664550087
0.1772517321016166,0.2520246818357115,0.4669906364821619,0.7846308867204073,0.2107367218732153,0.2964662689307021,0.5283847253420461,0.2279495990836197,0.4929620563035495,0.4617652478348996,0.4192947702060222,0.3879605647923803
0.1733256351039261,0.2468665638256845,0.462368140334242,0.7892978362324989,0.2090234151913192,0.2908826678904696,0.5297120686134368,0.2243699885452462,0.4903610771113831,0.4606135986733002,0.418026941362916,0.3864566797560364
0.1640877598152425,0.2325009641342075,0.4458930899608865,0.8014425116673738,0.2078812107367219,0.274131864769772,0.518582805799469,0.2081901489117983,0.480798653610771,0.4549935507646951,0.4114500792393027,0.3798562954298605
0.1644919168591224,0.2270053991515619,0.4316700248903639,0.8043063215952482,0.2150770988006853,0.2651828055683035,0.5192975290994486,0.2093356242840779,0.4798041615667074,0.4539340335360236,0.4100633914421553,0.3773915949536302
0.1719976905311778,0.2336097184728114,0.4326182292283986,0.797199830292745,0.2220445459737293,0.270766406608536,0.537165611598938,0.2326746849942726,0.4923500611995103,0.4606135986733002,0.4152535657686212,0.3826969671651767
0.1772517321016166,0.2423351330505206,0.4431670024890364,0.789987271955876,0.2222729868646488,0.2810157564632094,0.5587094139268939,0.2588774341351661,0.5061199510403916,0.4676616915422886,0.4204437400950871,0.3884618598044949
0.1747690531177829,0.2406478981874277,0.4441152068270713,0.7920555791260077,0.2193032552826956,0.2800214165519351,0.5649377169695732,0.2678980526918671,0.5104804161566707,0.4684448129721761,0.4213549920760697,0.3889631548166095
0.1700346420323326,0.2352005399151562,0.4404409150171862,0.7972528638099278,0.2164477441462022,0.2745143031971852,0.5648356136410047,0.265893470790378,0.5082619339045288,0.466740372213009,0.4192155309033281,0.3859553847439218
0.1744803695150115,0.2383821827998457,0.4391371340523883,0.793434450572762,0.2213592233009709,0.2765794707052165,0.5734122932407596,0.2733390607101947,0.5133873929008568,0.4682605491063203,0.4201664025356577,0.3868326510151224
0.183891454965358,0.2492286926340146,0.4464857176721584,0.7831459482392872,0.2271844660194175,0.2875936974147162,0.5962834388401062,0.3035509736540664,0.5282282741738066,0.4745715865118851,0.4265055467511886,0.3925557690700977
0.1853348729792148,0.2538565368299267,0.4549010311722176,0.7799639372083156,0.2245573957738436,0.2940186629952577,0.6243618541964467,0.3266036655211912,0.5410801713586292,0.4795467108899944,0.431418383518225,0.3965661291670148
0.1755773672055427,0.247107597377555,0.4583382718975939,0.7881310988544761,0.2132495716733295,0.2897353526082301,0.6394731468245863,0.324742268041237,0.5402386780905752,0.4780725999631472,0.4293977812995246,0.394268527028156
0.164838337182448,0.2412263787119167,0.466042432144127,0.7962982605006363,0.1988577955454026,0.2875936974147162,0.6383500102103328,0.2948167239404353,0.5270807833537332,0.4705177814630552,0.421473851030111,0.3877516918706659
0.1639145496535797,0.2435885075202468,0.4736280668484057,0.7954497242257106,0.1944031981724729,0.2918770078017439,0.6419236267102307,0.2706185567010309,0.518359853121175,0.4660493827160494,0.4171949286846276,0.3836160080207202
0.1614896073903002,0.2467701504049364,0.4864288254118762,0.7948133220195163,0.1858366647629926,0.2985314364387333,0.662752705738207,0.2615979381443298,0.516906364749082,0.4660493827160494,0.4173137876386688,0.3841590776171776
0.1583140877598152,0.2479753181642885,0.4959108687922247,0.7956088247772591,0.1780696744717304,0.3025852837693131,0.6770471717377986,0.2530068728522336,0.5168298653610771,0.4654965911184817,0.4182250396196513,0.3858300609908932
0.1568706697459584,0.247734284612418,0.4982813796373119,0.7963512940178192,0.1754426042261565,0.3031206975676915,0.6750051051664283,0.2315292096219931,0.5108629130966952,0.4627326331306431,0.4162836767036451,0.3827805163338625
0.1584295612009238,0.2469147705360586,0.4930662557781201,0.7961391599490878,0.179554540262707,0.3007495793177298,0.6457014498672656,0.2031786941580756,0.5000764993880049,0.4584945642159573,0.4123613312202853,0.3787701562369454
0.1674364896073903,0.2530370227535673,0.4896290150527438,0.7886084005091217,0.1901770416904626,0.3044974759063791,0.6056769450684092,0.1891466208476517,0.4958690330477356,0.4597383453104846,0.4131933438985737,0.3806500125323753
0.1811778290993071,0.2626783648283841,0.4852435699893327,0.7769940602460755,0.2058252427184466,0.3107694661159553,0.5741270165407392,0.1991695303550973,0.5039779681762546,0.4660493827160494,0.4204041204437401,0.3885036343888378
0.1961316397228637,0.2666795217894331,0.4642645490103118,0.7679253288078065,0.2307252998286693,0.3071745448982714,0.5373698182560751,0.2061855670103092,0.5063494492044064,0.4672931638105768,0.4235340729001585,0.3921797978110118
0.2002886836027713,0.2612803702275356,0.4424558492355103,0.7689859991514637,0.2453455168475157,0.295854367446841,0.5077598529712068,0.2120561282932417,0.5022184822521419,0.4666482402800811,0.4218304278922345,0.3910101094494109
0.1948614318706698,0.2463362900115696,0.4168543321085694,0.7796987696224013,0.2523129640205597,0.2757381061649074,0.4952011435572799,0.2116265750286368,0.4929620563035495,0.4618573797678276,0.4159667194928684,0.384409725123235
0.1992494226327944,0.2438777477824913,0.4018015882422662,0.7790093338990242,0.2638492290119932,0.2689307021569527,0.4945885235858689,0.2192153493699885,0.4928855569155446,0.4611203243044039,0.4152535657686212,0.3826134179964909
0.2095842956120092,0.2527477824913228,0.4023942159535379,0.7694102672889266,0.2737864077669903,0.2761205445923206,0.5064325096998162,0.2471363115693012,0.505125458996328,0.4681223512069284,0.4209984152139461,0.3883783106358091
0.2172632794457275,0.2584361743154647,0.4006163328197227,0.7627810776410691,0.2823529411764706,0.2800979042374177,0.5126608127424954,0.270475372279496,0.5136933904528763,0.4733738713838217,0.4256339144215531,0.3930152894978694
0.2157621247113164,0.2554473582722715,0.3963494132985658,0.765061518879932,0.2829240434037693,0.2763500076487685,0.5123545027567898,0.268184421534937,0.5097154222766217,0.4714391007923346,0.4240887480190174,0.3918038265519258
0.2086605080831409,0.2473486309294254,0.3908972383548654,0.7728044123886295,0.2784694460308395,0.2681658253021263,0.5030630998570553,0.2478522336769759,0.4967870257037943,0.4639303482587065,0.4178684627575278,0.3850363438883782
0.2080831408775982,0.2436367142306209,0.3831930781083323,0.7751378871446755,0.2815533980582524,0.2627351996328591,0.4980600367571982,0.2396907216494845,0.4899020807833537,0.4601990049751244,0.4148177496038035,0.3817361517252903
0.2118360277136259,0.2487466255302738,0.3879340997985065,0.7705770046669494,0.2830382638492291,0.2683188006730916,0.5072493363283643,0.2484249713631156,0.496328029375765,0.4632854247282108,0.4181854199683043,0.3845350488762636
0.2160508083140878,0.255736598534516,0.3964679388408201,0.7647963512940178,0.2831524842946888,0.2765794707052165,0.5177659791709209,0.256729667812142,0.5031364749082008,0.4669246360788649,0.4216719492868463,0.3878352410393517
0.2072170900692841,0.2518800617045892,0.4050017778831338,0.7710012728044123,0.2702455739577384,0.2763500076487685,0.5163365325709618,0.2494272623138602,0.5002294981640146,0.4654505251520177,0.4201267828843106,0.3860807084969505
0.1966512702078522,0.2429618202853837,0.4048832523408794,0.7807594399660586,0.2598515134209024,0.2691601652134006,0.5058198897284051,0.2288087056128293,0.4875305997552019,0.4601068730421965,0.4143819334389857,0.3796891970924889
0.1986143187066975,0.241997686077902,0.3984828730591443,0.7803351718285956,0.2648772130211309,0.2664066085360257,0.5043904431284459,0.2237972508591065,0.4837056303549571,0.4575271789202138,0.412202852614897,0.3773498203692872
0.2075635103926097,0.2487466255302738,0.3967049899253289,0.7725392448027153,0.2745859508852085,0.2711488450359492,0.5152133959567081,0.2419816723940435,0.4936505507955936,0.462778699097107,0.4168779714738511,0.3817779263096332
0.2119515011547344,0.2558330119552642,0.4051203034253882,0.7666525243954179,0.274814391776128,0.2794860027535567,0.5249132121707167,0.2557273768613975,0.5021419828641371,0.4679380873410724,0.4211965134706815,0.3860389339126076
0.2083718244803695,0.2529888160431932,0.4054758800521512,0.7698345354263894,0.2711593375214164,0.2773443475600428,0.5199101490708596,0.245418098510882,0.4960220318237454,0.4646674037221301,0.4185023771790808,0.3838248809424346
0.2028290993071594,0.2465291168530659,0.4009719094464857,0.7759333899024182,0.267846944603084,0.270766406608536,0.5093935062283029,0.2229381443298969,0.484547123623011,0.4594158835452367,0.4126386687797148,0.3783106358091737
0.1982101616628175,0.2453721558040879,0.4076093398127297,0.7786911327959269,0.2600799543118218,0.2719902095762582,0.5107208494996937,0.218213058419244,0.480875152998776,0.4579417726183896,0.40986529318542,0.3765143286824296
0.1994226327944573,0.2491804859236406,0.4146023468057366,0.776039456936784,0.2579097658480868,0.2772678598745602,0.518378599142332,0.233963344788087,0.4894430844553243,0.4621337755666114,0.4134310618066561,0.379647422508146
0.2003464203233256,0.2528441959120709,0.4215953537987436,0.7735999151463725,0.2555111364934324,0.2823925348018968,0.5274657953849294,0.2507159221076747,0.4967870257037943,0.4655426570849457,0.4178684627575278,0.3821538975687191
0.1934757505773672,0.2483609718472811,0.4246770178973569,0.7792214679677555,0.2471730439748715,0.2798684411809699,0.5240963855421686,0.2471363115693012,0.4938035495716034,0.4642528100239543,0.4166006339144216,0.3810259837914613
0.1863741339491917,0.2405514847666795,0.4199359962071826,0.7867522274077217,0.2424900057110223,0.2721431849472235,0.5116397794568103,0.2266609392898052,0.4831701346389229,0.458955223880597,0.4112123613312203,0.3750522182304286
0.183487297921478,0.239683763979946,0.4238473391015764,0.7886084005091217,0.2376927470017133,0.2726785987456019,0.5092914028997345,0.2229381443298969,0.4817931456548347,0.4584945642159573,0.4099445324881141,0.3746762469713426
0.1912817551963049,0.2473486309294254,0.4268104776579353,0.7808124734832413,0.2439748715019989,0.2797919534954872,0.5196038390851542,0.2418384879725085,0.4927325581395348,0.4645292058227381,0.4151743264659271,0.3804411396106609
0.1969399538106235,0.2533744697261859,0.4298921417565485,0.7748727195587611,0.2480868075385494,0.285528529906685,0.5274657953849294,0.2538659793814433,0.5000764993880049,0.4693200663349917,0.4196513470681458,0.3846603726292923
0.1970554272517321,0.2526031623602005,0.4277586819959701,0.7752439541790411,0.2492290119931468,0.2842282392534802,0.5218501123136614,0.2457044673539518,0.4952570379436964,0.4672010318776488,0.4177496038034865,0.3818614754783189
0.1958429561200924,0.2469629772464327,0.4164987554818063,0.7789032668646584,0.2534551684751571,0.2761205445923206,0.5087808862568919,0.224942726231386,0.4850826193390453,0.4614888520361157,0.4125198098256735,0.3766396524354582
0.1989607390300231,0.2432992672580023,0.4009719094464857,0.7794866355536699,0.2639634494574529,0.268242312987609,0.5072493363283643,0.2268041237113401,0.483782129742962,0.461166390270868,0.4128367670364501,0.3770156236945442
0.2066974595842956,0.2526995757809487,0.4082019675240014,0.7707361052184981,0.2681896059394632,0.2779562490439039,0.513783949356749,0.2419816723940435,0.4880660954712362,0.4646213377556661,0.4165213946117274,0.3803993650263179
0.2070438799076212,0.2582915541843424,0.4213583027142349,0.7675540941875264,0.2621359223300971,0.2866758451889246,0.5195017357565856,0.2449885452462772,0.4937270501835984,0.4656808549843376,0.4191759112519809,0.3821956721530621
0.195554272517321,0.2526513690705746,0.4309588716368377,0.7759333899024182,0.2461450599657339,0.2852990668502371,0.5157239125995507,0.2282359679266895,0.4875305997552019,0.4610281923714759,0.4159270998415214,0.3783106358091737
0.1848729792147806,0.244263401465484,0.4322626526016356,0.7854263894781501,0.2349514563106796,0.2790270766406608,0.5058198897284051,0.2079037800687285,0.4765911872705018,0.4544407591671274,0.4102218700475436,0.3720444481577408
0.1855658198614319,0.244841881989973,0.4322626526016356,0.7847899872719558,0.235636778983438,0.2794860027535567,0.5049009597712885,0.2058991981672394,0.4759026927784577,0.4539340335360236,0.4100237717908083,0.3711671818865402
0.1939376443418014,0.2526995757809487,0.4345146379044684,0.7766228256257955,0.2428326670474015,0.2865228698179593,0.5146007759852971,0.224942726231386,0.4859241126070991,0.4604754007739082,0.4157290015847861,0.3759712590859721
0.1998267898383372,0.2577612803702275,0.4347516889889771,0.7711073398387781,0.2486579097658481,0.2905767171485391,0.5237900755564631,0.2369702176403207,0.4915850673194614,0.4638842822922425,0.419770206022187,0.3789790291586599
0.1989030023094688,0.2538565368299267,0.4269290032001896,0.7737059821807382,0.2515134209023415,0.2849166284228239,0.5180722891566264,0.2260882016036655,0.4882190942472459,0.4606135986733002,0.4179477020602218,0.3763890049294009
0.1900115473441108,0.2463362900115696,0.4268104776579353,0.7819261773440814,0.2427184466019418,0.2789505889551782,0.5111292628139678,0.2093356242840779,0.4798041615667074,0.4562373318592224,0.413946117274168,0.3730888127663129
0.192378752886836,0.2468183571153104,0.4231361858480503,0.780547305897327,0.2468303826384923,0.2781857121003518,0.5106187461711251,0.2016036655211912,0.4777386780905752,0.455131748664087,0.4120839936608558,0.3720444481577408
0.2039260969976905,0.2567007327419977,0.4238473391015764,0.7698345354263894,0.2579097658480868,0.2862169190760287,0.5219522156422299,0.222651775486827,0.488142594859241,0.4620416436336835,0.4187797147385103,0.3780599883031164
0.2093533487297922,0.2641245661396066,0.4308403460945834,0.7632583792957148,0.2599657338663621,0.2943246137371883,0.5303246885848478,0.2373997709049255,0.495563035495716,0.4672470978441128,0.4239698890649763,0.3835742334363773
0.2067551963048499,0.2645584265329734,0.4372407253763185,0.7642129826050064,0.2542547115933752,0.2967722196726327,0.5294057586277313,0.2366838487972508,0.4973990208078335,0.4674774276764327,0.4234944532488114,0.3822374467374049
0.1905889145496536,0.2659082144234477,0.4737465923906601,0.7708952057700467,0.2206739006282125,0.3096221508337157,0.540943434755973,0.2591638029782359,0.5122399020807833,0.4713009028929427,0.4228209191759113,0.3777675662127162
0.1759815242494226,0.272367913613575,0.5194974517008415,0.7740772168010182,0.1841233580810965,0.3295089490592015,0.5817847661833775,0.37471363115693,0.5715269277845777,0.4964989865487378,0.4338748019017433,0.3818614754783189
0.1789838337182448,0.2903972232934824,0.5577812018489985,0.7627810776410691,0.168703597944032,0.3562031512926418,0.6334490504390442,0.5581328751431843,0.6693696450428397,0.5453289110005528,0.4625198098256736,0.4013702063664466
0.1895496535796767,0.3225510991129965,0.6151475643001066,0.740188799321171,0.1514563106796116,0.4001835704451583,0.6438635899530324,0.6509163802978235,0.7423500611995104,0.59765984890363,0.5072107765451664,0.4421004261007603
0.2140877598152425,0.3481970690320093,0.6278297973213227,0.7148387781077641,0.1697315819531696,0.4246596297996023,0.5871962425975087,0.5987972508591065,0.7561199510403916,0.6421135065413673,0.566798732171157,0.5076447489347481
0.2599307159353349,0.3707096027767065,0.5890719450041484,0.6813746287653797,0.2336950314106225,0.4299372800979042,0.5085766795997549,0.5525486827033218,0.7899326805385557,0.7191818684355998,0.6673930269413629,0.6206449995822542
0.3527136258660508,0.4072020825298881,0.488325234087946,0.6186890114552396,0.3740719588806397,0.4264188465657029,0.4063712477026751,0.5246277205040092,0.8544981640146878,0.8368804127510597,0.8160063391442156,0.7873673656947113
0.4459584295612009,0.4386810644041651,0.3743036624392556,0.5585490029698769,0.5211878926327813,0.4146397430013768,0.3099857055340003,0.4898339060710194,0.8902233782129743,0.925879859959462,0.9334389857369256,0.9208789372545744
0.5126443418013857,0.4554569996143463,0.2786535498399904,0.5187208315655494,0.6332381496287837,0.3970475753403701,0.2180927098223402,0.4205326460481099,0.8458537331701347,0.934033536023586,0.9701664025356578,0.9713426351407805
0.5071593533487299,0.4574816814500579,0.2948915491288372,0.5201527365294867,0.6199885779554541,0.4039314670338075,0.1878701245660608,0.3512313860252004,0.7447980416156671,0.8454947484798233,0.8956022187004755,0.9069680006683932
0.4416859122401848,0.4362707288854608,0.3771482754533602,0.5618901145523971,0.5155910908052542,0.4135689154046199,0.2263630794363895,0.2366838487972508,0.5558445532435741,0.6416528468767275,0.6993264659270999,0.7231598295596958
0.3611431870669746,0.3541264944080216,0.3405238828967642,0.6440390326686466,0.4535693889206169,0.3366223038090867,0.3541964468041658,0.2003150057273768,0.3621481028151775,0.4065321540445918,0.4504754358161648,0.475478318990726
0.2524249422632795,0.2537601234091785,0.3169372999881474,0.7492044972422571,0.357395773843518,0.2494263423588802,0.5424749846845007,0.2468499427262314,0.221236230110159,0.1911737608255021,0.20526941362916,0.2206115799147798
0.1248845265588914,0.1835711531045121,0.406068507763423,0.8463619007212558,0.1882352941176471,0.2224261893835092,0.7157443332652643,0.3263172966781214,0.1686811505507956,0.0765616362631288,0.066283676703645,0.0737739159495363
0.0553695150115473,0.1431739298110297,0.4495673817707716,0.9005091217649555,0.0985722444317533,0.2044515832950894,0.7884419032060445,0.3117124856815578,0.1495563035495716,0.0580431177446103,0.0413629160063391,0.0422341047706575
0.0462471131639723,0.1243733127651369,0.422069455967761,0.9150403054730588,0.1027984009137636,0.1806639131099892,0.8541964468041657,0.4785223367697594,0.2531364749082007,0.1380136355260733,0.1015055467511886,0.0848859553847439
0.0501154734411085,0.1514654839953721,0.4808581249259215,0.8983877810776411,0.07824100513992,0.2211258987303044,0.9183173371451908,0.6546391752577319,0.3940483476132191,0.244149622259075,0.1873613312202852,0.1550254824964491
0.0734411085450346,0.1910913999228692,0.5302832760459879,0.8658782350445482,0.0775556824671616,0.2685482637295395,0.9255666734735551,0.736111111111111,0.4682527539779681,0.3202045328911001,0.2608161648177496,0.2213635224329518
0.0980369515011547,0.2090242961820285,0.5238828967642526,0.8447178616885872,0.1049685893774986,0.2806333180357962,0.8794159689605879,0.6806987399770905,0.456624847001224,0.3537405564768749,0.3044770206022187,0.2648926393182388
0.1085450346420323,0.2077227150019282,0.498992532890838,0.8405812473483241,0.1273557966876071,0.271607771148845,0.8590974065754543,0.6799828178694157,0.483782129742962,0.3872305140961858,0.3351030110935024,0.2921714428941432
0.1163972286374134,0.2067585807944465,0.4806210738414128,0.8375053033517182,0.1440319817247287,0.2649533425118556,0.8204002450479886,0.6562142038946163,0.5261627906976744,0.4221945826423438,0.361014263074485,0.3141030996741582
0.1252886836027713,0.2162553027381411,0.4857176721583501,0.8281714043275349,0.1503141062250143,0.274131864769772,0.7639371043496017,0.5010022909507446,0.5243268053855569,0.4381334070388797,0.3768225039619651,0.32918372462194
0.1401270207852194,0.2346220593906672,0.5005333649401447,0.8113067458633857,0.1578526556253569,0.2934067615113966,0.7251378394935675,0.3848797250859107,0.5199663402692778,0.4467016768011793,0.3888668779714739,0.3413819032500627
0.1514434180138568,0.2475414577709217,0.5089486784402039,0.7990029698769622,0.1649343232438606,0.306409668043445,0.6875638145803553,0.3119988545246276,0.5185893512851897,0.4513543394140409,0.3966323296354992,0.3488595538474392
0.1561200923787529,0.2487466255302738,0.5023112480739599,0.7961921934662707,0.1728155339805825,0.3051858650757228,0.6395752501531549,0.2651775486827032,0.5093329253365972,0.4496038326884098,0.3969889064976228,0.3494026234438967
0.1561200923787529,0.2386714230620902,0.4775394097427995,0.801707679253288,0.1848086807538549,0.2892764264953342,0.5814784561976719,0.2276632302405498,0.4917380660954712,0.4439837847798047,0.3923137876386687,0.3451416158409224
0.1622401847575058,0.2325491708445816,0.4499229583975346,0.8022380144251167,0.2041119360365505,0.2755086431084595,0.5428833979987747,0.2183562428407789,0.4831701346389229,0.4416344204901419,0.3909667194928685,0.3434706324672069
0.1710161662817552,0.2317296567682221,0.4298921417565485,0.7986847687738651,0.2223872073101085,0.2683952883585742,0.5468654278129467,0.2457044673539518,0.4916615667074663,0.4460106873042196,0.3956022187004755,0.3468961483833236
0.1723441108545035,0.2279213266486695,0.4179210619888585,0.8001697072549852,0.2295830953740719,0.2614349089796542,0.5522769042270778,0.2615979381443298,0.4971695226438188,0.4490049751243781,0.3979001584786054,0.3495697217812682
0.1657043879907621,0.2208831469340532,0.4141282446367191,0.8071170980059397,0.224785836664763,0.2546275049716995,0.54594649785583,0.2525773195876288,0.4905140758873929,0.4466556108347153,0.394809825673534,0.3462695296181802
0.1615473441108545,0.2151465483995372,0.4084390186085102,0.8121552821383113,0.2234151913192462,0.2482790270766406,0.5335919950990402,0.2402634593356243,0.4815636474908201,0.4427400036852773,0.3904912836767036,0.3421338457682346
0.164203233256351,0.2141342074816814,0.4006163328197227,0.8114658464149342,0.2298115362649915,0.2449900566008872,0.5329793751276292,0.2441294387170675,0.4811811505507956,0.4423254099871015,0.3902535657686212,0.3425098170273205
0.1696882217090069,0.219629772464327,0.4028683181225554,0.8059503606279168,0.2341519131924615,0.2500382438427413,0.5465591178272411,0.2597365406643757,0.4905140758873929,0.4474387322646029,0.3944928684627575,0.3465201771242376
0.1732101616628175,0.2229560354801388,0.4036979969183359,0.8025031820110309,0.2372358652198744,0.2529447758910815,0.5534000408413313,0.2650343642611684,0.4944155446756426,0.4477611940298507,0.3961568938193344,0.3465619517085804
0.167378752886836,0.2177497107597377,0.4028683181225554,0.8080186677980483,0.2318675042832667,0.2485849778185712,0.5486011843986114,0.252147766323024,0.4861536107711138,0.4420490141883177,0.3912044374009509,0.3417160999248057
0.1575635103926097,0.2090242961820285,0.4016830627000118,0.8173525668222316,0.2227298686464877,0.241242160012238,0.5377782315703492,0.2289518900343642,0.4739137086903304,0.4349548553528654,0.3847068145800317,0.3345308714178293
0.1591224018475751,0.2096991901272657,0.4001422306507052,0.8162918964785744,0.2250142775556824,0.241242160012238,0.5402287114559934,0.2266609392898052,0.472001223990208,0.4353694490510411,0.3845087163232963,0.3322332692789707
0.1647228637413395,0.2185210181257231,0.4103354272845798,0.8088141705557912,0.2255853797829812,0.251567997552394,0.554727384112722,0.2461340206185567,0.4804926560587515,0.4401142435968307,0.388312202852615,0.3365778260506308
0.1653579676674365,0.2218472811415349,0.4172099087353324,0.8067458633856597,0.2229583095374072,0.2564632094232828,0.5656524402695527,0.2565864833906071,0.4869186046511627,0.4426939377188134,0.3893819334389857,0.3395855961233185
0.16270207852194,0.2156768222136521,0.4074908142704753,0.8113597793805685,0.2250142775556824,0.2484320024476059,0.5613641004696753,0.2419816723940435,0.47796817625459,0.4370278238437443,0.3837559429477021,0.3341549001587434
0.1543302540415704,0.2059872734284612,0.4008533839042313,0.8204815443360204,0.219988577955454,0.2385650910203457,0.5531958341841944,0.2192153493699885,0.465422276621787,0.4294269393771882,0.3763866877971474,0.3267190241457097
0.1534064665127021,0.2062283069803316,0.4033424202915728,0.8207997454391175,0.217818389491719,0.23955943093162,0.5556463140698387,0.2156357388316151,0.464657282741738,0.4287359498802285,0.3746038034865293,0.325507561199766
0.1573903002309469,0.2114346317007327,0.4079649164394927,0.8161327959270258,0.2195316961736151,0.2451430319718525,0.568511333469471,0.2279495990836197,0.4724602203182374,0.4325594250967386,0.3788827258320127,0.32918372462194
0.151905311778291,0.2118684920940995,0.4202915728339457,0.818360203648706,0.2082238720731011,0.2495028300443628,0.5759648764549724,0.2306701030927835,0.4751376988984088,0.4320987654320988,0.3795958795562599,0.3301863146461692
0.1427251732101616,0.2048303123794832,0.421713879340998,0.8264743317776835,0.1984009137635637,0.2443781551170261,0.5725954666122115,0.2189289805269186,0.46687576499388,0.4264787175234937,0.3746434231378763,0.3245467457598797
0.1357390300230947,0.1988526802930968,0.4215953537987436,0.8329444208739923,0.1915476870359794,0.2396359186171026,0.5688176434551766,0.2047537227949599,0.4588433292533659,0.4204901418831768,0.368581616481775,0.317110869746846
0.1371824480369515,0.2015040493636714,0.4250325945241199,0.8308761137038608,0.19131924614506,0.2427719137218907,0.5738207065550337,0.2117697594501718,0.4607558139534883,0.4205362078496407,0.3683042789223455,0.3166931239034171
0.1419745958429561,0.2094581565753953,0.4348702145312315,0.8242999575731862,0.19131924614506,0.2522563867217378,0.5882172758831937,0.2306701030927835,0.47062423500612,0.4269854431545974,0.3728209191759112,0.3211630044281059
0.1422055427251732,0.2124951793289625,0.4416261704397298,0.822496817988969,0.1882352941176471,0.2569221355361786,0.5967939554829487,0.2373997709049255,0.4752906976744185,0.4285977519808366,0.3737321711568938,0.3219984961149637
0.136662817551963,0.2091689163131508,0.4449448856228518,0.8268455663979635,0.1812678469446031,0.2553158941410433,0.590667755768838,0.2200744558991981,0.4674112607099143,0.4229316381057675,0.3690570522979398,0.3174450664215891
0.1308891454965358,0.2027092171230235,0.4409150171862036,0.8331035214255409,0.177384351798972,0.2488909285605017,0.5819889728405145,0.2026059564719358,0.4571603427172583,0.4169891284319145,0.362202852614897,0.3115130754448993
0.1337759815242494,0.2028538372541458,0.4353443167002489,0.8316716164616038,0.1829811536264992,0.2472081994798837,0.5814784561976719,0.2014604810996564,0.4553243574051407,0.4160217431361711,0.3602614896988907,0.30833820703484
0.1428406466512702,0.2080601619745468,0.4295365651297854,0.8246711921934662,0.1947458595088521,0.2495028300443628,0.5909740657545436,0.2104810996563573,0.4593788249694002,0.4173115901971623,0.3613708399366086,0.3093407970590692
0.147459584295612,0.2057944465869649,0.4143652957212279,0.8237696224013576,0.2066247858366648,0.2427719137218907,0.5961813355115376,0.2106242840778923,0.4616738066095471,0.4176801179288742,0.3618858954041205,0.3102180633302698
0.1400692840646651,0.2032876976475125,0.4234917624748133,0.828542638947815,0.1949743003997716,0.2436897659476824,0.5829079027976312,0.1852806414662084,0.4474449204406364,0.4099871015293901,0.3549920760697306,0.3038265519258083
0.1335450346420323,0.2012148091014269,0.4317885504326182,0.832679253288078,0.1844660194174757,0.2447605935444393,0.5706555033694098,0.1595074455899198,0.4352050183598531,0.4015570296664825,0.3475832012678288,0.2961818029910602
0.1301385681293302,0.1979367527959891,0.430721820552329,0.836073398387781,0.1816105082809823,0.2417775738106165,0.5737186032264652,0.1512027491408934,0.431609547123623,0.3986548737792519,0.3435816164817749,0.2930904837496867
0.1341801385681293,0.2052641727728499,0.4404409150171862,0.8301336444633007,0.1809251856082239,0.2508031206975676,0.5843373493975903,0.1596506300114547,0.4381119951040391,0.4007739082365948,0.3450871632329636,0.2953463113042025
0.1331408775981524,0.2068067875048206,0.446367192129904,0.8298154433602036,0.1770416904625928,0.2539391158023558,0.5896467224831529,0.1554982817869415,0.438953488372093,0.3993458632762116,0.3455625990491284,0.2950956637981451
0.1224018475750577,0.1996239876590821,0.4507526371933151,0.8386720407297412,0.164363221016562,0.2496558054153281,0.5791300796405963,0.1327319587628865,0.4270195838433293,0.3917449788096554,0.3407290015847861,0.2888294761467123
0.1156466512702078,0.1956228306980331,0.4547825056299632,0.8439753924480271,0.1556824671616219,0.2477436132782622,0.5674903001837859,0.1116838487972508,0.4165391676866585,0.3858946010687304,0.3344690966719493,0.2831063580917369
0.1149538106235566,0.1958156575395295,0.4566789143060329,0.8441875265167587,0.1540833809251856,0.2485084901330885,0.568511333469471,0.1099656357388316,0.41546817625459,0.3862170628339783,0.3335974643423138,0.2828974851700225
0.1224018475750577,0.2043482452757423,0.4622496147919877,0.836073398387781,0.1587664191890349,0.2570751109071439,0.5805595262405554,0.1251431844215348,0.4241891064871481,0.3915607149437995,0.3378367670364501,0.2884117303032835
0.1260392609699769,0.2108561511762437,0.47102050491881,0.8308230801866779,0.1581953169617361,0.2651063178828208,0.5829079027976312,0.1262886597938144,0.4269430844553243,0.3930808918371108,0.3388668779714738,0.2899573899239702
0.1185334872979215,0.2068067875048206,0.476354154320256,0.8364976665252438,0.1481439177612792,0.2635765641731681,0.5692260567694507,0.1050973654066437,0.4162331701346389,0.3856642712364105,0.3334786053882726,0.2846520177124237
0.1112586605080831,0.2039143848823756,0.4841768401090435,0.8414297836232499,0.1371787549971445,0.263806027229616,0.5592199305697365,0.0823310423825887,0.4073592411260709,0.3803666850930533,0.3288827258320126,0.2799314896816777
0.1132794457274827,0.2059872734284612,0.4851250444470784,0.8393614764531183,0.1387778412335808,0.2657947070521646,0.5594241372268736,0.0766036655211912,0.4078182374541003,0.3816104661875806,0.3305467511885895,0.2813936001336787
0.1214780600461894,0.2143270343231778,0.4887993362569633,0.8310352142554094,0.1450599657338664,0.273519963285911,0.5673881968552174,0.0860538373424971,0.416156670746634,0.3866777224986181,0.336053882725832,0.2875762386164258
0.1239030023094688,0.2196779791747011,0.4970961242147682,0.8269516334323291,0.14346087949743,0.2804803426648309,0.5673881968552174,0.0841924398625429,0.4180691554467564,0.3877833056937535,0.3386291600633914,0.2908764307795137
0.1143764434180138,0.2141342074816814,0.5029038757852317,0.8343763258379295,0.1312392918332382,0.2779562490439039,0.5484990810700429,0.0595647193585337,0.405829253365973,0.3818868619863645,0.3344294770206023,0.2871584927729969
0.1117205542725173,0.2117720786733513,0.5025482991584687,0.8369219346627068,0.1287264420331239,0.2759675692213553,0.5364508882989585,0.0455326460481099,0.3991738066095471,0.3783397825686383,0.3309825673534073,0.2841507227003091
0.1133371824480369,0.2141342074816814,0.5050373355458101,0.8348536274925752,0.1291833238149629,0.2786446382132476,0.5368593016132325,0.0456758304696448,0.4031517747858017,0.3813340703887968,0.3324881141045959,0.2864483248391678
0.1184757505773672,0.219051291939838,0.5065781675951168,0.8298154433602036,0.1335237007424329,0.2830809239712406,0.5471717377986522,0.0637170675830469,0.415391676866585,0.3871844481297217,0.3383122028526149,0.2927145124906007
0.1207274826789838,0.2219919012726571,0.5091857295247125,0.8271637675010606,0.1344374643061108,0.2862169190760287,0.5440065346130284,0.0713058419243986,0.4222766217870257,0.3907775935139119,0.341877971473851,0.2961818029910602
0.1151270207852194,0.2158696490551484,0.5055114377148275,0.833050487908358,0.1307824100513992,0.2801743919229004,0.5352256483561364,0.0684421534936998,0.4215116279069767,0.390731527547448,0.3415610142630745,0.2955969588102598
0.1132217090069284,0.212157732356344,0.5004148393978902,0.8359673313534153,0.1313535122786979,0.2755851307939421,0.5341025117418827,0.0733104238258877,0.4238066095471236,0.3921595725078312,0.3420760697305863,0.2954298604728883
0.1177829099307159,0.2156768222136521,0.4997036861443641,0.8319898175647009,0.1361507709880068,0.2781092244148692,0.5420665713702266,0.0963631156930125,0.4372705018359852,0.4000829187396352,0.3480982567353408,0.3008187818531205
0.1259815242494226,0.2243540300809873,0.5042076567500297,0.8234514212982605,0.1420902341519132,0.2864463821324766,0.5619767204410864,0.1354524627720504,0.4589198286413709,0.4120140040538051,0.3572900158478606,0.3103016124989556
0.1290993071593533,0.2286444273042807,0.508356050728932,0.8196330080610945,0.1432324386065106,0.2911886186324002,0.5713702266693894,0.1630870561282932,0.4774326805385557,0.4221024507094159,0.3653724247226625,0.317486841005932
0.1252309468822171,0.2250289240262244,0.5074078463908972,0.8233983877810775,0.1398058252427185,0.2880526235276121,0.5675924035123544,0.1719644902634593,0.4870716034271726,0.4265708494564216,0.3690570522979398,0.3212047790124488
0.1221131639722863,0.2228114153490165,0.508356050728932,0.8260500636402205,0.1362649914334666,0.2865993575034419,0.5682050234837654,0.1868556701030927,0.4967105263157894,0.433572876358946,0.3734944532488114,0.3253822374467374
0.1292725173210162,0.2310065561126108,0.5138082256726324,0.8182541366143402,0.1407195888063963,0.2948600275355668,0.5866857259546661,0.2275200458190149,0.5188188494492044,0.4478993919292428,0.3853803486529318,0.3349068426769153
0.1363163972286374,0.2374662553027381,0.5152305321796847,0.8114658464149342,0.1470017133066819,0.3004436285757993,0.6106800081682663,0.2663230240549828,0.5449816401468788,0.4620416436336835,0.3973058637083994,0.3461024312808087
0.1364896073903002,0.2407925183185499,0.5230532179684722,0.8095566397963513,0.14346087949743,0.305568303503136,0.6267102307535225,0.286368843069874,0.5605875152998776,0.4726828818868619,0.4062599049128367,0.3557523602640154
0.1327367205542725,0.2432028538372541,0.5368021808699774,0.8099809079338142,0.133066818960594,0.3119932690836775,0.626812334082091,0.2793528064146621,0.5630354957160343,0.4758614335728764,0.4107765451664025,0.3595956220235609
0.1274826789838337,0.2407443116081759,0.5414246770178973,0.8136932541366143,0.125642490005711,0.3115343429707817,0.6236471308964672,0.2638888888888889,0.5611995104039167,0.4769209508015478,0.4128763866877971,0.3614337037346478
0.1293879907621247,0.2437813343617431,0.544980443285528,0.811147645311837,0.1258709308966305,0.315052776502983,0.6336532570961813,0.2617411225658648,0.5678549571603427,0.4841533075363922,0.4199286846275753,0.3682847355668811
0.1367205542725173,0.2520246818357115,0.5500770416024654,0.803245651251591,0.1305539691604797,0.3232369588496252,0.6419236267102307,0.2717640320733104,0.5821603427172583,0.4953473373871384,0.4317749603803487,0.379647422508146
0.1367205542725173,0.2552063247204011,0.5580182529335072,0.8014955451845566,0.1267846944603084,0.3283616337769618,0.6460077598529712,0.2711912943871707,0.5871328029375764,0.4992629445365764,0.4381537242472266,0.3857047372378644
0.1304272517321016,0.2496143463170073,0.5571885741377266,0.8074883326262197,0.1209594517418618,0.3236193972770384,0.6352869103532774,0.2534364261168384,0.5777233782129743,0.4938271604938272,0.4339540412044375,0.3816526025566045
0.1252886836027713,0.2451311222522175,0.5568329975109636,0.81231438268986,0.1160479725870931,0.3199479883738718,0.6229324075964876,0.2343928980526918,0.567625458996328,0.4878385848535103,0.428446909667195,0.3763890049294009
0.1303117782909931,0.2487466255302738,0.5552921654616569,0.8080186677980483,0.1217589948600799,0.3223191066238335,0.6229324075964876,0.2352520045819014,0.5694614443084455,0.4886217062833978,0.4295562599049129,0.3773915949536302
0.1427251732101616,0.2594967219436945,0.5561218442574375,0.7964043275350021,0.1336379211878926,0.3311151904543368,0.6241576475393098,0.2538659793814433,0.5796358629130968,0.4969596462133776,0.4387876386687797,0.3862895814186649
0.1489607390300231,0.2663902815271886,0.5603887637785943,0.7897221043699617,0.1377498572244432,0.3379990821477742,0.6098631815397182,0.268184421534937,0.5882802937576499,0.5071402248019163,0.4487717908082409,0.3959395104018715
0.1517321016166282,0.2623409178557655,0.5447433922010192,0.7906767076792532,0.1480296973158195,0.3297384121156494,0.5725954666122115,0.2587342497136311,0.5818543451652387,0.5084300718629077,0.4499207606973058,0.3981535633720444
0.1506928406466513,0.2547724643270343,0.5282683418276639,0.7953436571913449,0.1549971444888635,0.3183417469787364,0.5280784153563405,0.2501431844215349,0.5744339045287638,0.5072784227013084,0.4507527733755943,0.3988637313058735
0.1588337182448037,0.2510123409178558,0.5023112480739599,0.7936465846414934,0.1755568246716162,0.3070215695273061,0.4865223606289565,0.252147766323024,0.5684669522643819,0.5061728395061729,0.4520998415213946,0.4009106859386749
0.1723441108545035,0.2521210952564597,0.4774208842005452,0.7868582944420873,0.2007995431182181,0.2999082147774208,0.4849908107004287,0.2948167239404353,0.5781823745410036,0.5125299428782016,0.458161648177496,0.4075110702648508
0.1738452655889145,0.2443598148862321,0.4551380822567263,0.7904645736105218,0.2131353512278698,0.2865228698179593,0.4923422503573616,0.3284650630011455,0.5830018359853121,0.5143265155702967,0.4606973058637084,0.4091402790542234
0.1715357967667436,0.2328384111068261,0.4315514993481095,0.7978362324989393,0.222158766419189,0.2697720666972617,0.4856034306718398,0.3267468499427262,0.5744339045287638,0.5099963147226829,0.4568145800316958,0.4047957222825633
0.1709584295612009,0.227680293096799,0.420054521749437,0.800965210012728,0.2271844660194175,0.2619703227780327,0.48284664080049,0.3264604810996563,0.5682374541003672,0.5052975861433573,0.4528129952456418,0.4004511655109032
0.1718822170900693,0.2297531816428847,0.4232547113903046,0.7993742044972422,0.226499143346659,0.264647391769925,0.491627527057382,0.3416380297823597,0.572062423500612,0.5066795651372766,0.4543977812995246,0.4017879522098755
0.1804272517321016,0.2358754338603933,0.4207656750029631,0.7921086126431904,0.2362078812107367,0.2687012391005048,0.5053093730855626,0.3573883161512027,0.5756578947368421,0.5088907315275475,0.4568541996830428,0.4045868493608488
0.182852193995381,0.2373216351716159,0.4194618940381652,0.7901463725074247,0.2391776127926899,0.2693896282698485,0.5156218092709822,0.3628293241695303,0.5755048959608323,0.5090289294269394,0.4565768621236133,0.4045033001921631
0.1773672055427252,0.2278249132279213,0.4072537631859665,0.7978892660161221,0.2396344945745288,0.2579164754474529,0.50959771288544,0.345217640320733,0.5634179926560587,0.502211166390271,0.4501188589540412,0.39794469045033
0.1713625866050808,0.2176532973389896,0.3945715301647505,0.8062685617310139,0.2398629354654483,0.2457549334557136,0.5034715131713293,0.3307560137457044,0.551484088127295,0.4946102819237148,0.4429873217115689,0.3916367282145542
0.1726327944572748,0.2197261858850752,0.3969420410098376,0.8045184556639795,0.2399771559109081,0.248202539391158,0.5078619562997754,0.3320446735395188,0.5524785801713586,0.4932283029297954,0.4420760697305864,0.3906759127746679
0.1801963048498845,0.2294639413806401,0.4055944055944055,0.7957148918116249,0.2431753283837807,0.258757839987762,0.5203185623851337,0.3473654066437571,0.5608170134638922,0.4978809655426571,0.4454833597464342,0.3958977358175286
0.1814665127020785,0.2304280755881218,0.4053573545098969,0.7946011879507848,0.2445459737292976,0.2594462291571057,0.5309373085562589,0.3562428407789232,0.5645654834761322,0.4992168785701124,0.4459191759112519,0.3963990308296433
0.1751154734411085,0.2220401079830312,0.3976531942633638,0.8021319473907509,0.2420331239291833,0.2502677068991892,0.5274657953849294,0.3422107674684994,0.555921052631579,0.4929519071310116,0.4393819334389858,0.3903417160999248
0.1678406466512702,0.215580408792904,0.3967049899253289,0.8090263046245226,0.2352941176470588,0.2448370812299219,0.5222585256279354,0.3301832760595646,0.5465881272949816,0.4866408697254469,0.4334389857369255,0.3837413317737488
0.1721709006928407,0.2210759737755495,0.4012089605309944,0.8040411540093338,0.2374643061107939,0.2506501453266024,0.5269552787420869,0.3333333333333333,0.5494951040391677,0.4872857932559425,0.4332012678288431,0.38332358593032
0.1811778290993071,0.2306691091399923,0.4063055588479317,0.7946011879507848,0.2438606510565391,0.2599051552700015,0.540943434755973,0.3469358533791523,0.5572980416156671,0.490326147042565,0.4356973058637084,0.385537638900493
0.1745381062355658,0.2291747011183956,0.4163802299395519,0.7984726347051336,0.2324386065105654,0.2619703227780327,0.5452317745558505,0.3529495990836196,0.5578335373317014,0.4897272894785333,0.4356180665610142,0.384743921797978
0.164838337182448,0.2223293482452757,0.4194618940381652,0.8066928298684769,0.2213592233009709,0.2575340370200398,0.54114764141311,0.3409221076746849,0.5522490820073439,0.4851667587985996,0.4309033280507132,0.3795220987551173
0.1594110854503464,0.2170748168145006,0.4176840109043499,0.8120492151039457,0.2167904054825814,0.2527918005201162,0.5397181948131509,0.3336197021764032,0.5473531211750305,0.4819421411461213,0.4262282091917591,0.3746344723869997
0.1586605080831409,0.2185692248360972,0.4230176603057959,0.8116249469664828,0.213478012564249,0.2556983325684565,0.5490095977128854,0.3463631156930126,0.5548500611995104,0.4849364289662797,0.4285657686212362,0.376347230345058
0.1639722863741339,0.223630929425376,0.4244399668128482,0.8063746287653797,0.2180468303826385,0.2602111060119321,0.5635082703696139,0.3752863688430699,0.5715269277845777,0.4929058411645476,0.4359350237717908,0.3826969671651767
0.167378752886836,0.2339953721558041,0.443048476946782,0.7991090369113278,0.2125642490005711,0.2744378155117026,0.5668776802123748,0.3833046964490263,0.5774938800489596,0.4959922609176341,0.4381933438985737,0.3850363438883782
0.1632794457274827,0.2296085615117624,0.4405594405594405,0.8034047518031395,0.2095945174186179,0.2700780174391923,0.5584031039411884,0.3718499427262313,0.5725979192166463,0.4945642159572508,0.436053882725832,0.3819032500626619
0.1586605080831409,0.224787890474354,0.4381889297143534,0.808177768349597,0.2061679040548258,0.2655652439957167,0.5513579742699612,0.3625429553264604,0.5670899632802938,0.4924451814999079,0.4326862123613312,0.3779346645500877
0.1630484988452656,0.2294639413806401,0.4406779661016949,0.8035638523546882,0.2093660765276984,0.2700780174391923,0.5555442107412701,0.3669816723940435,0.5716034271725826,0.4943799520913949,0.4347068145800317,0.3792296766647171
0.1696882217090069,0.2341881989973004,0.4387815574256252,0.797942299533305,0.2167904054825814,0.2732140125439804,0.5660608535838269,0.384020618556701,0.5801713586291309,0.4982494932743689,0.4383122028526149,0.3831147130086055
0.1709006928406466,0.2347184728114153,0.4374777764608273,0.7970937632583792,0.2187321530553969,0.2732140125439804,0.5675924035123544,0.3926116838487972,0.5851438188494491,0.5029021558872305,0.4412044374009509,0.3866237780934079
0.1653002309468822,0.2285480138835325,0.4336849591086879,0.8030865507000424,0.2149628783552256,0.2670185100198868,0.554931590769859,0.3780068728522336,0.5797888616891065,0.499953934033536,0.4394215530903328,0.3848274709666638
0.161662817551963,0.2230042421905129,0.4276401564537158,0.807753500212134,0.2142775556824672,0.2606700321248278,0.5424749846845007,0.3592497136311569,0.5716034271725826,0.4951170075548186,0.4364500792393027,0.3819032500626619
0.1640877598152425,0.2277767065175472,0.4342775868199596,0.8040411540093338,0.213478012564249,0.2666360715924736,0.5458443945272615,0.3608247422680412,0.5738219094247246,0.4968214483139856,0.4375198098256735,0.383657782605063
0.1675519630484988,0.2365021210952564,0.4487377029749911,0.7976240984302078,0.2099371787549972,0.2782621997858345,0.5600367571982846,0.375,0.5821603427172583,0.5029021558872305,0.4434627575277338,0.3889631548166095
0.1650692840646651,0.2359718472811415,0.4526490458693848,0.7991090369113278,0.2055968018275271,0.2791035643261434,0.5658566469266898,0.3815864833906071,0.5865973072215422,0.5060807075732449,0.447107765451664,0.3920544740579831
0.155080831408776,0.2256556112610875,0.4476709730947019,0.8093445057276198,0.1980582524271845,0.2693131405843659,0.5571778639983663,0.3674112256586483,0.5777998776009792,0.5024875621890548,0.4433835182250396,0.3887125073105523
0.1530600461893764,0.2211241804859236,0.4406779661016949,0.8127916843445057,0.1995431182181611,0.2634235888022028,0.5442107412701653,0.3493699885452462,0.5687729498164015,0.4989865487377925,0.440095087163233,0.3854540897318071
0.1556004618937644,0.2252699575780949,0.4456560388763779,0.809291472210437,0.1996573386636208,0.2683188006730916,0.5491117010414539,0.3575315005727377,0.5734394124847001,0.5026718260549107,0.4438193343898574,0.3900910685938675
0.1678983833718245,0.2354897801774007,0.4455375133341235,0.7980483665676708,0.211764705882353,0.2764264953342512,0.5570757606697978,0.372709049255441,0.5812423500611995,0.508061544131196,0.4492076069730586,0.395354666221071
0.1694572748267898,0.2370806016197454,0.4462486665876496,0.7964573610521849,0.2130211307824101,0.2778797613584213,0.5577904839697774,0.3715635738831614,0.5798653610771114,0.5081536760641239,0.4491283676703645,0.3947698220402706
0.1644341801385681,0.2314404165059776,0.4426929003200189,0.8018667798048366,0.2097087378640777,0.2722961603181887,0.5475801511129262,0.3518041237113402,0.5687729498164015,0.5035470794177263,0.4448890649762282,0.3917620519675829
0.1562933025404157,0.2272946394138064,0.4492118051440085,0.8079126007636827,0.1985151342090234,0.2710723573504666,0.5433939146416173,0.3382016036655211,0.5604345165238678,0.5,0.4417591125198098,0.3895479989974099
0.1623556581986143,0.2334168916313151,0.4518193670736043,0.801707679253288,0.2033123929183324,0.2768089337616644,0.545742291198693,0.3386311569301259,0.5623470012239902,0.5005527915975678,0.4430665610142631,0.3914278552928398
0.1688221709006928,0.2422869263401465,0.460353206115918,0.7938587187102248,0.2055968018275271,0.2865228698179593,0.554931590769859,0.3480813287514318,0.5664014687882497,0.5029021558872305,0.4462757527733756,0.3954799899740997
0.1668591224018476,0.2405514847666795,0.4599976294891549,0.7957679253288078,0.2038834951456311,0.2850696037937892,0.5596283438840105,0.3440721649484536,0.5624235006119951,0.5014741109268472,0.4462757527733756,0.3958559612331857
0.1634526558891455,0.2359718472811415,0.4558492355102524,0.7998515061518879,0.2023986293546545,0.2800979042374177,0.549928527670002,0.3165807560137457,0.548500611995104,0.4940114243596831,0.4402139461172741,0.3898404210878101
0.1603348729792148,0.2312957963748554,0.4507526371933151,0.8038290199406024,0.2018275271273558,0.2747437662536331,0.541351848070247,0.2981099656357388,0.5370257037943696,0.4889441680486457,0.4353011093502377,0.384785696382321
0.163568129330254,0.2349112996529117,0.4530046224961479,0.8003818413237165,0.2039977155910908,0.278338687471317,0.5445170512558709,0.3009736540664375,0.5364137086903304,0.4881149806522941,0.4353011093502377,0.3861224830812933
0.1683602771362586,0.2424315464712688,0.4616569870807159,0.7940178192617734,0.2045688178183895,0.2870582836163378,0.5538084541556054,0.3085624284077892,0.5390911872705019,0.4891744978809655,0.4358954041204437,0.3876681427019801
0.1630484988452656,0.2385750096413421,0.4630792935877681,0.7985787017394993,0.1986293546544832,0.2845341899954107,0.5542168674698794,0.3004009163802978,0.5357252141982863,0.4882071125852221,0.4337559429477021,0.3853705405631214
0.1577367205542725,0.2286444273042807,0.4495673817707716,0.8064806957997454,0.1998857795545403,0.2722961603181887,0.5441086379415968,0.2829324169530354,0.5249388004895961,0.4829555924083288,0.428446909667195,0.3800651683515749
0.1534064665127021,0.2192923254917084,0.4354628422425032,0.8136402206194314,0.2022844089091947,0.2602875936974147,0.5419644680416581,0.2764891179839633,0.5193543451652387,0.478441127694859,0.4263470681458003,0.3779346645500877
0.1596420323325635,0.2212688006170458,0.4276401564537158,0.809662706830717,0.2122215876641919,0.259369741471623,0.5536042474984684,0.2926689576174112,0.5250917992656059,0.4800534365210982,0.428526148969889,0.3803575904419751
0.1651847575057737,0.2267643655996915,0.4296550906720398,0.8040941875265167,0.2167904054825814,0.2643414410279944,0.5687155401266081,0.3121420389461626,0.5338892288861689,0.4837847798046804,0.431418383518225,0.3837831063580917
0.1617205542725173,0.2268125723100655,0.4368851487495555,0.8056851930420025,0.2098229583095374,0.2667125592779562,0.5807637328976925,0.3245990836197021,0.5382496940024479,0.4852588907315276,0.4321315372424723,0.3841590776171776
0.1560623556581986,0.2210277670651754,0.4342775868199596,0.8114128128977512,0.2055968018275271,0.261281933608689,0.581886869511946,0.3164375715922107,0.5335832313341493,0.4814354155150175,0.4273771790808241,0.3797727462611747
0.1476905311778291,0.2145680678750482,0.4355813677847576,0.8188375053033516,0.1965733866362079,0.2565396971087655,0.5835205227690422,0.3168671248568155,0.532359241126071,0.4792703150912106,0.423256735340729,0.3759712590859721
0.1497113163972286,0.218472811415349,0.441033542728458,0.8157615613067458,0.1960022844089092,0.2614349089796542,0.6003675719828466,0.3412084765177549,0.5438341493268054,0.4840611756034642,0.4275752773375594,0.3803158158576322
0.1539838337182448,0.2232934824527574,0.4441152068270713,0.811147645311837,0.1987435750999429,0.2662536331650604,0.6206861343679804,0.3692726231386025,0.5562270501835985,0.4891744978809655,0.4329635499207607,0.3851616676414069
0.1536374133949191,0.2210277670651754,0.4392556595946426,0.8125795502757742,0.2006853226727585,0.2628881750038244,0.6379415968960588,0.3741408934707903,0.5588280293757649,0.4895430256126774,0.4324881141045959,0.3846603726292923
0.1401847575057737,0.2113382182799845,0.443048476946782,0.8240878235044548,0.1856082238720731,0.2563867217378002,0.6432509699816213,0.3526632302405498,0.5472766217870256,0.4829555924083288,0.4262678288431062,0.3784777341465452
0.1324480369515011,0.2060354801388353,0.4458930899608865,0.8305579126007637,0.1765848086807538,0.2530977512620468,0.6449867265672861,0.3267468499427262,0.538173194614443,0.4788557213930348,0.422662440570523,0.3748433453087141
0.1323903002309469,0.2062765136907057,0.4466042432144126,0.8304518455663978,0.1761279268989149,0.2535566773749426,0.6632632223810496,0.320446735395189,0.5374082007343941,0.4788096554265709,0.4230586370839936,0.3762219065920294
0.1359699769053118,0.2174604704974932,0.4667535853976531,0.8226559185405176,0.1699600228440891,0.2689307021569527,0.6768429650806616,0.3062714776632302,0.535266217870257,0.4768748848350839,0.4224643423137877,0.3757623861642576
0.1372401847575058,0.2210759737755495,0.473035439137134,0.8200572761985575,0.168246716162193,0.2738259140278415,0.6808249948948336,0.2856529209621993,0.5289167686658507,0.4734199373502856,0.4193343898573692,0.3738825298688277
0.137066974595843,0.2204492865406864,0.4718501837145905,0.8204815443360204,0.168703597944032,0.2729080618020498,0.6651010822952828,0.2563001145475372,0.5175948592411261,0.4689515386032799,0.4142630744849445,0.3683682847355668
0.1434757505773672,0.2248360971847281,0.4694796728695034,0.8151251591005515,0.1761279268989149,0.2756616184794248,0.6344700837247294,0.2376861397479954,0.5113219094247246,0.4663718444812972,0.4132329635499208,0.3669897234522516
