Lead I,Lead II,Lead III,aVR,aVL,aVF,V1,V2,V3,V4,V5,V6
0.2321016166281755,0.2578094870806016,0.3686144364110466,0.7562579550275774,0.3123929183323815,0.2693131405843659,0.5985297120686134,0.1708190148911798,0.4605263157894737,0.4301639948406118,0.3909667194928685,0.3588854540897317
0.2355658198614319,0.2579059005013498,0.3616214294180396,0.7546139159949088,0.3192461450599658,0.2670949977053694,0.5478864610986318,0.1416093928980527,0.4502753977968176,0.4261562557582459,0.387797147385103,0.3570473723786448
0.245554272517321,0.2569899730042422,0.3389830508474576,0.7505303351718285,0.3399200456881782,0.2590637907296925,0.509189299571166,0.138459335624284,0.4488984088127294,0.4280910263497328,0.3894215530903329,0.3585512574149887
0.2549076212471132,0.2539529502506749,0.3123148038402276,0.7479316928298685,0.3620788121073672,0.2480495640201927,0.4861139473146824,0.1622279495990836,0.4556303549571603,0.4342177998894417,0.3952060221870047,0.3643161500543069
0.2596997690531178,0.2489394523717701,0.290150527438663,0.7485150615188799,0.3774985722444318,0.2369588496252103,0.4797835409434347,0.1827033218785796,0.4606028151774786,0.4360143725815367,0.3967908082408874,0.3654858384159077
0.2558891454965358,0.2395873505591978,0.2749792580301055,0.7553563852354688,0.3810394060536837,0.2246443322625057,0.4689605881151725,0.1758304696449026,0.4530293757649938,0.4294269393771882,0.391244057052298,0.3600551424513326
0.2500577367205542,0.2330794446586965,0.2710679151357117,0.7616673737802291,0.3771559109080526,0.2181428789964815,0.4621196651010822,0.1705326460481099,0.4444614443084455,0.4249585406301824,0.3875198098256735,0.3557523602640154
0.2553695150115473,0.23394716544543,0.2620599739243807,0.7586974968179889,0.3867504283266705,0.2160012238029677,0.4663059015723912,0.1898625429553264,0.4498929008567931,0.4299336650082919,0.3913629160063391,0.3583423844932743
0.2661662817551963,0.241419205553413,0.2583856821144957,0.7496287653797199,0.3992004568817818,0.2207434603028912,0.4845823973861548,0.2192153493699885,0.4629742962056303,0.4384098028376635,0.3981774960380349,0.3656529367532793
0.2683025404157044,0.243733127651369,0.2596894630792936,0.7474013576580398,0.4006853226727584,0.2229616031818877,0.4922401470287931,0.2239404352806414,0.4657282741738066,0.4393311221669431,0.3994453248811411,0.3671150472052803
0.2616628175519631,0.2377072888546085,0.25850420765675,0.753765379719983,0.3946316390633924,0.2177604405690683,0.478456197672044,0.1987399770904925,0.4511933904528764,0.4306246545052515,0.3931458003169572,0.3604311137104186
0.2553117782909931,0.2302834554569996,0.2532890837975584,0.7607658039881204,0.3909765848086808,0.2101881597062873,0.4687563814580354,0.179410080183276,0.4390299877600979,0.4231159019716234,0.3870839936608558,0.3541649260589857
0.2572170900692841,0.2328866178172002,0.2558966457271542,0.7584853627492575,0.3915476870359795,0.2130946917546275,0.4783540943434755,0.1865693012600228,0.4436199510403917,0.4267551133222775,0.3889857369255151,0.356587851950873
0.2626443418013857,0.2442151947551099,0.2726087471850184,0.7497348324140857,0.3889206167904055,0.2275508643108459,0.4923422503573616,0.2054696449026345,0.4532588739290085,0.4329740187949143,0.3935023771790808,0.3609324087225332
0.2632794457274827,0.245420362514462,0.274149579234325,0.7487802291047941,0.388692175899486,0.229004130335016,0.4985705534000408,0.2096219931271477,0.455171358629131,0.4340796019900498,0.3955625990491284,0.3633553346144206
0.2571593533487298,0.2399247975318164,0.2732013748962901,0.7546139159949088,0.3832095945174187,0.2243383815205751,0.4838676740861752,0.1821305841924398,0.4407894736842105,0.4252810023954303,0.3892234548335974,0.3566714011195588
0.2517321016166282,0.2347184728114153,0.2715420173047291,0.7599703012303776,0.3785265562535694,0.2196726327061343,0.4731468245864815,0.1666666666666666,0.4289320685434516,0.4189699649898655,0.3831616481774961,0.3511989305706408
0.2551963048498846,0.2366467412263787,0.2690529809173876,0.7573186253712346,0.3832095945174187,0.220361021875478,0.4802940575862772,0.1772623138602519,0.4329865361077111,0.4225170444075917,0.385419968304279,0.3534547581251566
0.2632217090069285,0.2447936752795989,0.2728457982695271,0.7491514637250741,0.3892632781267848,0.2280097904237417,0.496017970185828,0.1984536082474226,0.4445379436964504,0.4301179288741478,0.3914421553090333,0.3600551424513326
0.2672055427251732,0.2502410335518704,0.2779423965864643,0.744325413661434,0.3907481439177613,0.2340523175768701,0.5009189299571165,0.2011741122565864,0.4467564259485924,0.4311313801363552,0.3929477020602219,0.3611830562285905
0.2568706697459584,0.2452757423833397,0.2869503377977955,0.7518031395842172,0.3762421473443747,0.2329814899801132,0.4878497039003471,0.174971363115693,0.4340575275397796,0.4228395061728395,0.3864500792393027,0.3548750939928148
0.2484988452655889,0.2401658310836869,0.2915728339457153,0.7584323292320746,0.3657338663620788,0.2303809086737035,0.4779456810292015,0.1563573883161512,0.4231181150550795,0.4165745347337388,0.3813391442155309,0.3495697217812682
0.250635103926097,0.2432510605476282,0.2947730235865828,0.7557806533729317,0.3663049685893775,0.2338993422059048,0.4887686338574636,0.1699599083619702,0.4287025703794369,0.4206283397825687,0.3839936608557844,0.3524103935165845
0.2571593533487298,0.2501928268414963,0.2985658409387223,0.7489393296563428,0.3709880068532268,0.2406302585283769,0.505207269756994,0.1978808705612829,0.4414779681762545,0.4295651372765801,0.3908874801901743,0.3596791711922466
0.2586605080831409,0.252313922097956,0.3005807751570463,0.7470831565549427,0.3714448886350657,0.2430013767783387,0.509189299571166,0.2011741122565864,0.4434669522643819,0.4310853141698913,0.3927099841521395,0.3615590274876765
0.252309468822171,0.2510123409178558,0.3104183951641578,0.75074246924056,0.3603655054254712,0.2451430319718525,0.4989789667143148,0.1814146620847651,0.4354345165238678,0.4246821448313986,0.3885895404120444,0.3581752861559027
0.2509237875288684,0.2499035865792518,0.3105369207064122,0.7520152736529486,0.3589948600799543,0.2442251797460609,0.4883602205431896,0.1696735395189003,0.4283200734394125,0.4206283397825687,0.3853407290015848,0.3556688110953296
0.2596997690531178,0.2539047435403008,0.3023586582908617,0.7457573186253712,0.3715591090805254,0.2447605935444393,0.4933632836430466,0.1827033218785796,0.433828029375765,0.4252810023954303,0.3886291600633915,0.3582170607402455
0.268013856812933,0.2600752024681835,0.3004622496147919,0.7385447602885024,0.3808109651627642,0.249043903931467,0.5093935062283029,0.2099083619702176,0.4473684210526316,0.4339414040906578,0.3958399366085579,0.3655276130002506
0.2703810623556582,0.2593038951021982,0.2937062937062937,0.7379083580823079,0.3862935465448315,0.246290347254092,0.5108229528282622,0.2089060710194731,0.4469094247246022,0.4338492721577299,0.3967908082408874,0.3666137521931657
0.2647228637413395,0.253470883146934,0.2908616806921891,0.7436890114552397,0.3820673900628212,0.2407832338993421,0.4925464570144987,0.1811282932416953,0.4334455324357405,0.4259719918923899,0.3910459587955626,0.360974183306876
0.2647806004618938,0.2527959892016969,0.2892023231006282,0.7440072125583368,0.3829811536264992,0.2396359186171026,0.4810087808862568,0.1640893470790377,0.422047123623011,0.4214575271789202,0.3861727416798732,0.356587851950873
0.2720554272517321,0.2575684535287312,0.2860021334597606,0.7380674586338566,0.3916619074814392,0.2424659629799602,0.4873391872575046,0.1732531500572737,0.4257190942472461,0.4256034641606782,0.3889857369255151,0.3594702982705322
0.2766166281755197,0.2634014654839954,0.2909802062344435,0.7327641069155706,0.3938320959451742,0.2486614655040538,0.5046967531141514,0.1945876288659793,0.4384944920440636,0.4332043486272342,0.394770206022187,0.3656947113376221
0.2712471131639723,0.2634014654839954,0.3020030816640986,0.7352036487059822,0.3832095945174187,0.2522563867217378,0.5100061261997141,0.1940148911798396,0.4400244798041616,0.4324672931638106,0.3950475435816165,0.3652769654941933
0.262066974595843,0.2580505206324721,0.3076923076923077,0.7423631735256682,0.3714448886350657,0.2498087807862933,0.4959158668572595,0.1709621993127147,0.4278610771113831,0.4245439469320067,0.388312202852615,0.3590943270114462
0.2573903002309469,0.2552545314307751,0.3104183951641578,0.7460755197284684,0.3655054254711594,0.2484320024476059,0.4853992240147028,0.1542096219931271,0.4189871481028152,0.4194306246545053,0.3836767036450079,0.3547079956554432
0.2637990762124712,0.2598341689163131,0.3085219864880882,0.7406130674586338,0.3727013135351228,0.2514915098669114,0.4936695936287522,0.167955326460481,0.4257190942472461,0.4246821448313986,0.3878763866877971,0.3581335115715598
0.2743071593533487,0.26605283455457,0.3021216072063529,0.7323928722952905,0.3861793260993719,0.254321554229769,0.5080661629569123,0.1910080183276059,0.4383414932680538,0.4330200847613783,0.3944532488114105,0.3647338958977358
0.2743071593533487,0.2676918627072888,0.3062700011852554,0.7314382689859992,0.3842375785265563,0.2569986232216613,0.513783949356749,0.1955899198167239,0.4414779681762545,0.4344481297217616,0.3970681458003169,0.3673656947113376
0.2661662817551963,0.2640763594292326,0.3140926869740428,0.7371658888417479,0.3723586521987436,0.2566161847942481,0.5024504798856443,0.1766895761741123,0.4291615667074663,0.4269393771881334,0.391244057052298,0.3616425766563622
0.266743648960739,0.264365599691477,0.3136185848050254,0.736794654221468,0.3731581953169617,0.2567691601652134,0.4923422503573616,0.1615120274914089,0.4202876376988984,0.4228395061728395,0.3870047543581617,0.3572562453003592
0.2695150115473441,0.2688006170458927,0.3188337086642171,0.7330823080186678,0.3733866362078812,0.2619703227780327,0.5028588931999183,0.1766895761741123,0.4298500611995103,0.4292887414777963,0.3922741679873217,0.3622691954215056
0.275,0.2753085229463941,0.323456204812137,0.7269834535426389,0.3765848086807539,0.2685482637295395,0.5186849091280376,0.2026059564719358,0.4440789473684211,0.4385019347705915,0.3997622820919176,0.370498788537054
0.2731524249422632,0.2751156961048978,0.3268934455375133,0.7278850233347476,0.3731581953169617,0.2695426036408138,0.5222585256279354,0.2038946162657502,0.4461444308445532,0.4391468583010872,0.401109350237718,0.3724621940011697
0.2658198614318707,0.2710663324334747,0.3319900438544506,0.7335065761561306,0.3633352370074244,0.2679363622456784,0.5060240963855421,0.1735395189003436,0.4313800489596083,0.4307628524046434,0.3957606973058637,0.3667808505305372
0.2625866050808314,0.2689934438873891,0.3335308759037572,0.7361052184980907,0.3594517418617933,0.2667890469634389,0.4927506636716356,0.1490549828178694,0.418298653610771,0.4245439469320067,0.3907290015847861,0.36247806834322
0.2656466512702078,0.2736694947936753,0.3387459997629489,0.7321277047093763,0.360022844089092,0.2722196726327061,0.5034715131713293,0.1683848797250859,0.4288555691554467,0.4306707204717155,0.3954437400950872,0.3651098671568217
0.2599307159353349,0.2840339375241034,0.3758444944885623,0.7291047942299532,0.3363792118789264,0.2924124216001224,0.5399224014702879,0.2358247422680412,0.4675642594859241,0.4482218536944906,0.4049524564183835,0.3718773498203693
0.2440531177829099,0.2867817200154261,0.4153135000592627,0.734885447602885,0.3017704169046259,0.3073275202692366,0.5829079027976312,0.3585337915234822,0.5287637698898409,0.4726368159203981,0.4143423137876387,0.3743838248809424
0.2322748267898383,0.2894330890860008,0.4460116155031409,0.7388099278744166,0.2752712735579669,0.3193360868900107,0.6097610782111497,0.5012886597938143,0.6040391676866586,0.5058043117744611,0.4301505546751189,0.3787283816526026
0.2396651270207852,0.3141149247975318,0.4916439492710678,0.7218392023759015,0.2605368360936608,0.3536790576717148,0.6012865019399632,0.561426116838488,0.6601897184822522,0.5495669799152386,0.4666798732171157,0.4098504469880524
0.2736720554272517,0.3476185885075203,0.5040891312077752,0.6877916843445057,0.2881781838949172,0.3842741318647698,0.5655503369409842,0.5462485681557846,0.6907894736842105,0.6034180947116271,0.5323296354992076,0.4800735232684435
0.3327367205542725,0.3857500964134208,0.4765912054047647,0.639690284259652,0.3599086236436323,0.4056141961144256,0.5213395956708189,0.5516895761741122,0.7546664626682986,0.6949051041090843,0.6433438985736926,0.6018882112122984
0.4189376443418014,0.4247011183956807,0.3954012089605309,0.5787017394993635,0.4842946887492861,0.4102799449288664,0.4292423933020216,0.5297823596792669,0.8284118727050184,0.8164271236410541,0.7951664025356576,0.7711588269696716
0.4946882217090069,0.4458638642499036,0.291809885030224,0.5322443784471785,0.609137635636779,0.3936821171791342,0.3109046354911169,0.452319587628866,0.8446297429620562,0.8940943430993182,0.90689381933439,0.8996574484083882
0.5513279445727484,0.466737369841882,0.2269764134170913,0.4947496817988969,0.6964020559680184,0.3893223191066238,0.1992035940371656,0.3470790378006872,0.7758567931456548,0.8871844481297217,0.9318145800316956,0.9411813852452168
0.5520207852193996,0.4867913613575009,0.2748607324878511,0.4834005091217649,0.6740148486579098,0.4206822701545051,0.1891974678374515,0.2955326460481099,0.6804620563035496,0.7980468030219274,0.8588351822503963,0.8807753362854038
0.4966512702078522,0.4789336675665253,0.3692070641223183,0.5131523122613492,0.5737292975442605,0.4449288664525011,0.2520931182356544,0.1917239404352806,0.495563035495716,0.5986272341993736,0.6734548335974644,0.7127579580583173
0.4172055427251732,0.3940898573081373,0.3236932558966457,0.596308867204073,0.5171901770416906,0.3628575799296313,0.378394935674903,0.1479095074455899,0.2979651162790697,0.3630458817025981,0.4286450079239303,0.4715932826468376
0.2960161662817552,0.2736212880833012,0.2762830389949033,0.718232923207467,0.4201027984009138,0.2520269236652899,0.5375740249132122,0.1378865979381443,0.1289779681762546,0.1335452367790676,0.1724247226624405,0.2080374300275712
0.1668591224018476,0.1894523717701504,0.334479080241792,0.8238226559185405,0.2643061107938321,0.2039926571821936,0.6832754747804778,0.138745704467354,0.0472766217870256,0.0099963147226828,0.0234548335974643,0.051549837079121
0.1107967667436489,0.1501156961048978,0.3528505392912172,0.871234620280017,0.2,0.1787517209729233,0.7686338574637532,0.1456185567010309,0.0420746634026927,0.0036392113506541,0.003526148969889,0.0213050380148717
0.1109699769053118,0.1338218279984573,0.312433329382482,0.8800912176495543,0.2196459166190748,0.1527459079088266,0.85664692668981,0.333906071019473,0.1629436964504284,0.0907960199004975,0.0683835182250396,0.0668393349486172
0.1116050808314088,0.1537311993829541,0.3601991229109873,0.8688481120067884,0.1972587093089663,0.1840293712712253,0.901368184602818,0.470360824742268,0.2710373317013464,0.1689699649898655,0.1311014263074484,0.1169688361600802
0.1151270207852194,0.187524103355187,0.4358184188692663,0.8486423419601187,0.164363221016562,0.2351996328591096,0.8976924647743515,0.5410939289805269,0.3439412484700122,0.2398194214114612,0.1948494453248811,0.1706909516250313
0.1381062355658198,0.2068067875048206,0.4361739954960294,0.8274819686041578,0.1868646487721302,0.2506501453266024,0.8391872575045947,0.5118843069873997,0.3475367197062423,0.2842730790491984,0.2460776545166403,0.2190241457097501
0.1748267898383372,0.2272946394138064,0.4111651060803603,0.7993742044972422,0.2351798972015991,0.258757839987762,0.8018174392485193,0.5342210767468499,0.3887698898408812,0.3329648056016215,0.2923534072900158,0.2620519675829225
0.2118937644341801,0.2467701504049364,0.3829560270238237,0.7716376750106066,0.2854368932038835,0.2651828055683035,0.7636307943638961,0.6013745704467353,0.4739902080783353,0.3946932006633499,0.3411251980982567,0.3053722115464951
0.2331986143187067,0.2576166602391053,0.3658883489391964,0.7558867204072973,0.314791547687036,0.268242312987609,0.6798039616091484,0.5028636884306987,0.497016523867809,0.4241754192002948,0.3692155309033281,0.3296014704653688
0.237066974595843,0.2544832240647898,0.3502429773616214,0.7558336868901145,0.3262135922330098,0.2606700321248278,0.5833163161119053,0.3434994272623138,0.4694767441860465,0.4211350654136724,0.3717511885895405,0.3326092405380566
0.2356235565819862,0.2463844967219437,0.3332938248192486,0.760924904539669,0.3329525985151342,0.2488144408750191,0.5307331018991218,0.2532932416953035,0.4488984088127294,0.4145936981757877,0.3692551505546751,0.3300192163087977
0.2414549653579676,0.2426725800231392,0.3121962782979732,0.7603415358506576,0.3488292404340378,0.2391005048187242,0.5314478251991014,0.2465635738831615,0.4522643818849449,0.4193845586880412,0.3728209191759112,0.3337789288996574
0.2515588914549653,0.2428172001542614,0.291809885030224,0.7556215528213831,0.3685893774985723,0.2325990515527,0.5418623647130896,0.270332187857961,0.4649632802937576,0.4283213561820527,0.3807448494453249,0.3407135099005764
0.2516743648960739,0.2424315464712688,0.2906246296076805,0.7557276198557488,0.3693889206167904,0.2319106623833562,0.5422707780273637,0.2743413516609393,0.468329253365973,0.4317763036668509,0.3830031695721078,0.3440137020636645
0.2479214780600462,0.2377554955649826,0.2868318122555411,0.7600233347475605,0.3674471730439749,0.2270154505124675,0.5214416989993873,0.247709049255441,0.4549418604651162,0.4245439469320067,0.3774960380348653,0.338666555267775
0.2468822170900693,0.2340917855765522,0.2799573308047884,0.7625159100551548,0.3697315819531697,0.2218907755851308,0.5119460894425159,0.2273768613974799,0.4444614443084455,0.420029482218537,0.3734152139461172,0.3341966747430863
0.248729792147806,0.2376108754338604,0.284816878037217,0.7597581671616461,0.3691604797258709,0.2262505736576411,0.5259342454564019,0.2415521191294387,0.4509638922888617,0.4246821448313986,0.3768225039619651,0.3377892889965744
0.2547344110854503,0.2398765908214423,0.2780609221287187,0.7557276198557488,0.3784123358081097,0.2258681352302279,0.540739228098836,0.2574455899198167,0.4606793145654834,0.4313617099686752,0.3816957210776545,0.3431782103768067
0.2529445727482679,0.2373216351716159,0.2755718857413772,0.7579550275774289,0.377841233580811,0.2230380908673703,0.5420665713702266,0.2535796105383734,0.4586903304773561,0.4312235120692832,0.3812995245641838,0.3421756203525775
0.2431293302540416,0.2327419976860779,0.284461301410454,0.7650084853627492,0.363906339234723,0.2221967263270613,0.5270573820706554,0.2263745704467353,0.4425489596083231,0.4214114612124562,0.3730190174326466,0.3334865068092572
0.2395496535796767,0.2321635171615889,0.2903875785231717,0.7669707254985151,0.357395773843518,0.223726480036714,0.518378599142332,0.209049255441008,0.4305385556915544,0.4141330385111479,0.3669968304278923,0.3285571058567967
0.2460161662817552,0.237996529116853,0.2913357828612066,0.7607658039881204,0.3633352370074244,0.2286216919076029,0.531345721870533,0.2237972508591065,0.4381884944920441,0.4186935691910816,0.3707606973058637,0.3324421422006851
0.2514434180138568,0.2410817585807944,0.2877800165935759,0.7566291896478574,0.3704169046259281,0.2299219825608077,0.5502348376557075,0.2471363115693012,0.4490514075887393,0.4262944536576378,0.3759112519809826,0.3371626702314312
0.2498845265588914,0.2376108754338604,0.2825648927343842,0.7592278319898176,0.3714448886350657,0.2254856968028147,0.5528895241984888,0.2484249713631156,0.4474449204406364,0.4259719918923899,0.3736925515055467,0.3356587851950873
0.2420900692840647,0.2306691091399923,0.2813796373118407,0.7666525243954179,0.3642490005711022,0.2195961450206517,0.5406371247702675,0.2195017182130584,0.4328335373317013,0.4169891284319145,0.3658874801901743,0.3285571058567967
0.2394341801385681,0.2308137292711145,0.2871873888823041,0.767766228256258,0.3588806396344946,0.2215848248432002,0.5314478251991014,0.2010309278350515,0.4223531211750306,0.4104477611940298,0.3607369255150555,0.3234188319826218
0.2432448036951501,0.2352969533359043,0.2902690529809174,0.7635235468816292,0.3611650485436893,0.2261740859721584,0.5444149479273024,0.2133447880870561,0.4282435740514075,0.4138105767459001,0.3631933438985737,0.3257582087058234
0.246189376443418,0.2408889317392981,0.2979732132274504,0.7591217649554518,0.3603655054254712,0.2330579776655958,0.5659587502552583,0.2375429553264604,0.4401774785801713,0.4208126036484246,0.3681458003169572,0.330980031748684
0.2437066974595843,0.2402140377940609,0.3015289794950812,0.7606597369537547,0.3561393489434609,0.2336698791494569,0.5696344700837247,0.2382588774341351,0.4420899632802937,0.4206744057490326,0.3664817749603803,0.3299356671401119
0.2367205542725173,0.2338025453143077,0.3001066729880289,0.7673419601187951,0.3499714448886351,0.228162765794707,0.5563610373698182,0.21577892325315,0.4304620563035495,0.4137645107794362,0.3600237717908082,0.3240036761634222
0.2341801385681294,0.2318260701889703,0.3004622496147919,0.769622401357658,0.3473443746430611,0.2267094997705369,0.5478864610986318,0.202033218785796,0.4228121175030599,0.4092039800995025,0.3563391442155309,0.3198679923134765
0.2399538106235566,0.2369841881989973,0.3012919284105724,0.7641069155706406,0.3525985151342091,0.2310692978430472,0.5565652440269553,0.2169243986254296,0.4302325581395349,0.4134881149806523,0.3601426307448495,0.3232935082295931
0.2421478060046189,0.2417084458156575,0.3084034609458338,0.760553669919389,0.3513420902341519,0.2370353373106929,0.5708597100265468,0.2396907216494845,0.4410189718482252,0.4190160309563295,0.3641045958795563,0.3275127412482245
0.2379330254041571,0.2405032780563054,0.3140926869740428,0.7630992787441663,0.344374643061108,0.2379531895364846,0.5722891566265059,0.2389747995418098,0.4388004895960832,0.415975677169707,0.3621236133122029,0.325883532458852
0.2304272517321016,0.2352487466255302,0.3164631978191299,0.7694633008061094,0.3359223300970874,0.2345112436897659,0.5604451705125587,0.2173539518900343,0.4277845777233782,0.4085129906025429,0.3547543581616482,0.3183223326927897
0.2219399538106236,0.2323081372927111,0.326774919995259,0.7749787865931269,0.3224443175328384,0.2355055836010402,0.5601388605268531,0.2114833906071019,0.4258720930232558,0.4073613414409435,0.3521394611727417,0.3143537471802156
0.2283487297921478,0.2379001156961049,0.3273675477065307,0.7689859991514637,0.3284980011422045,0.2401713324154811,0.5711660200122524,0.2286655211912943,0.4329865361077111,0.4117376082550212,0.355784469096672,0.3169019968251316
0.237066974595843,0.2462880833011955,0.330093635178381,0.7603415358506576,0.3359223300970874,0.2476671255927795,0.5838268327547478,0.2471363115693012,0.4436964504283965,0.4165284687672748,0.3599445324881141,0.3209123569220486
0.240473441108545,0.2473486309294254,0.3257081901149697,0.7581671616461603,0.3414049114791548,0.2471317117944011,0.581886869511946,0.245274914089347,0.4423959608323133,0.4146858301087157,0.358161648177496,0.3182387835241039
0.2345842956120093,0.2399247975318164,0.3195448619177432,0.7649554518455663,0.3385494003426614,0.2392534801896894,0.5689197467837451,0.2233676975945017,0.4290850673194614,0.4060254284134881,0.3503961965134707,0.3100927395772412
0.2321593533487298,0.2362128808330119,0.3153964679388408,0.768137462876538,0.3380925185608224,0.2349701698026617,0.5616704104553808,0.2083333333333333,0.4222766217870257,0.402294085129906,0.3463153724247227,0.3060823794803242
0.240877598152425,0.2405514847666795,0.3082849354035795,0.761720407297412,0.3501998857795546,0.2361174850849013,0.5682050234837654,0.2192153493699885,0.4292380660954712,0.4059332964805602,0.3493660855784469,0.3084635307878686
0.2468822170900693,0.2456613960663324,0.3085219864880882,0.7562049215103945,0.3559109080525414,0.2402478201009637,0.5758627731264039,0.2279495990836197,0.436046511627907,0.4088354523677907,0.352377179080824,0.3115966246135851
0.2422632794457275,0.247155804087929,0.3214412705938129,0.7574777259227832,0.3451741861793261,0.2456019580847483,0.5751480498264243,0.2150630011454753,0.4300795593635251,0.4037221300902893,0.3488906497622821,0.3077115882696967
0.2301385681293302,0.2390088700347088,0.3264193433684959,0.7675540941875264,0.3307824100513992,0.2407832338993421,0.5651419236267102,0.1844215349369988,0.4145501835985312,0.3946471346968859,0.3402535657686212,0.2978945609491185
0.2254618937644342,0.2347184728114153,0.3254711390304611,0.7720089096308866,0.3266704740148487,0.2370353373106929,0.5622830304267918,0.1729667812142038,0.4092717258261933,0.3915607149437995,0.3357369255150555,0.2935917787618013
0.2331986143187067,0.2383821827998457,0.3185966575797084,0.7664403903266864,0.3375214163335238,0.2377237264800367,0.5755564631406983,0.19315578465063,0.4195226438188494,0.3968583010871568,0.339500792393027,0.2978110117804328
0.2393764434180139,0.2501928268414963,0.3349531824108095,0.757159524819686,0.3358081096516276,0.2523328744072204,0.5841331427404534,0.2008877434135166,0.4250305997552019,0.3995301271420675,0.3416798732171157,0.2999832901662628
0.2348729792147806,0.2521693019668338,0.3489391963968234,0.7581141281289775,0.3246145059965734,0.2584518892458314,0.5806616295691239,0.1848510882016036,0.4196756425948592,0.3953381241938455,0.3387480190174327,0.2963071267440889
0.2271939953810623,0.2459024296182028,0.3495318241080953,0.765114552397115,0.3167332952598516,0.2537096527459079,0.5677966101694915,0.1606529209621993,0.4077417380660954,0.3871844481297217,0.3312995245641838,0.2898320661709416
0.2221131639722864,0.2415638256845353,0.3491762474813322,0.7697815019092066,0.3119360365505426,0.2501147315282239,0.563712477026751,0.1459049255441007,0.4013922888616891,0.3840519624101714,0.3276941362916006,0.2862394519174534
0.2286951501154734,0.2486984188198997,0.3533246414602347,0.7628341111582521,0.3163906339234724,0.2571515985926266,0.5687155401266081,0.1507731958762886,0.4057527539779681,0.3881518334254653,0.3293581616481775,0.2892472219901412
0.2319284064665127,0.2564596991901273,0.3656512978546877,0.7571064913025032,0.3136493432324386,0.2672479730763347,0.5779048396977742,0.1592210767468499,0.4130966952264382,0.3922977704072231,0.3330427892234548,0.2937171025148299
0.2261547344110855,0.2574720401079831,0.3799928884674647,0.7592278319898176,0.3009708737864078,0.2726785987456019,0.5711660200122524,0.1454753722794959,0.4076652386780906,0.3879675695596094,0.3314580031695721,0.2916283732976857
0.2161662817551963,0.251156961048978,0.3849709612421477,0.7672358930844293,0.2887492861222159,0.2693131405843659,0.5559526240555442,0.1145475372279496,0.3923653610771113,0.3798599594619495,0.3246434231378764,0.2847355668811095
0.2136836027713626,0.2499035865792518,0.3869858954604717,0.7690920661858295,0.2853226727584238,0.2689307021569527,0.545333877884419,0.0913516609392897,0.3852509179926561,0.3768656716417911,0.3211568938193344,0.28126827638065
0.2220554272517321,0.2578094870806016,0.3891193552210502,0.7608718710224862,0.292632781267847,0.2758910815358727,0.5486011843986114,0.0962199312714776,0.3910648714810281,0.3816565321540446,0.3253565768621236,0.2861141281644248
0.2333718244803695,0.2707770921712302,0.3980087708901268,0.7485680950360628,0.2994860079954312,0.2890469634388863,0.5537063508270369,0.1095360824742268,0.3997858017135862,0.3877372397272896,0.3315372424722663,0.2927980616592865
0.2318129330254042,0.2731392209795604,0.4068981865592035,0.7479847263470513,0.2936607652769846,0.2937891999388098,0.5495201143557279,0.1016609392898052,0.3971083231334149,0.3858485351022664,0.3312599049128368,0.2924638649845434
0.2269630484988453,0.2701504049363671,0.4096242740310536,0.7518561731014001,0.2876070816676185,0.2922594462291571,0.5330814784561977,0.074885452462772,0.3840269277845777,0.3790768380320619,0.3260301109350238,0.2879939844598546
0.2265588914549654,0.2702950250674894,0.4106910039113429,0.7519622401357657,0.2865790976584809,0.2927183723420529,0.5255258321421278,0.0664375715922107,0.381655446756426,0.3786161783674222,0.3244849445324881,0.2871584927729969
0.2367205542725173,0.2778152718858465,0.4083204930662558,0.743158676283411,0.2978869217589949,0.2979195349548723,0.5394118848274453,0.0955040091638029,0.3974143206854345,0.3881978993919293,0.3316561014263074,0.2945525942016876
0.2475173210161663,0.2841303509448515,0.4015645371577575,0.7347263470513364,0.3118218161050828,0.3007495793177298,0.5541147641413109,0.1290091638029782,0.4153151774785801,0.3994379952091395,0.3403328050713154,0.3042442977692372
0.2474018475750578,0.2842267643655997,0.4021571648690293,0.7347263470513364,0.3113649343232439,0.3010555300596604,0.5552379007555646,0.1351660939289805,0.418375152998776,0.4010042380689148,0.3416798732171157,0.3058317319742668
0.2424364896073903,0.280996914770536,0.404409150171862,0.7387568943572337,0.3054254711593376,0.2992198256080771,0.5462528078415356,0.1234249713631156,0.4143206854345165,0.398378477980468,0.3388668779714738,0.303199933160665
0.2438221709006928,0.2834072502892402,0.4074908142704753,0.7368476877386508,0.3051970302684181,0.3021263576564173,0.5472738411272208,0.1353092783505154,0.422047123623011,0.4034457342915055,0.3420760697305863,0.3067089982454675
0.2498267898383372,0.2912649440802159,0.4144838212634822,0.7297411964361475,0.307824100513992,0.3106164907449901,0.5651419236267102,0.174971363115693,0.44484394124847,0.4168969964989866,0.3527337559429477,0.3176121647589606
0.2571016166281755,0.3000385653682993,0.4211212516297262,0.7215740347899873,0.3118218161050828,0.3197185253174238,0.5859710026546865,0.2150630011454753,0.4719247246022032,0.4319605675327069,0.3642234548335974,0.3290166262845685
0.2573903002309469,0.3032202082529888,0.4283513097072419,0.7197178616885871,0.3086236436322102,0.32453724950283,0.5942413722687359,0.2329610538373424,0.4855416156670746,0.4385940667035194,0.369175911251981,0.3344890968334865
0.2476905311778291,0.2985441573467026,0.4366480976650468,0.7267182859567246,0.2950314106225015,0.3235429095915557,0.5934245456401878,0.2306701030927835,0.4861536107711138,0.4392389902340151,0.369175911251981,0.3341549001587434
0.2449769053117783,0.2982549170844581,0.4416261704397298,0.7281501909206619,0.2898914905768133,0.3249196879302432,0.6043496017970186,0.2376861397479954,0.4932680538555691,0.4455500276395799,0.373851030110935,0.3377057398278887
0.2525981524249423,0.3108850752024682,0.457034490932796,0.7176495545184557,0.2901199314677328,0.3399112742848401,0.6231366142536247,0.2573024054982817,0.5122399020807833,0.4599686751428046,0.3858557844690967,0.3494443980282396
0.2589491916859123,0.3235634400308523,0.4751688988977125,0.7077853203224438,0.2876070816676185,0.3558207128652286,0.6406983867674086,0.2720504009163803,0.5311352509179926,0.4717615625575825,0.3968700475435816,0.3610577324755618
0.2526558891454966,0.3265522560740455,0.4954367666232072,0.7090581247348323,0.2716162193032553,0.3646932843812145,0.6424341433530733,0.252290950744559,0.5332772337821298,0.4739266629813894,0.4002773375594295,0.3645667975603642
0.2442263279445727,0.3233224064789818,0.5048002844613014,0.7146796775562155,0.258709308966305,0.3651522104941104,0.6229324075964876,0.2133447880870561,0.5240973072215422,0.4720379583563663,0.400554675118859,0.3644414738073356
0.246189376443418,0.326214809101427,0.5078819485599146,0.712187102248621,0.2592804111936037,0.3684411809698638,0.6101694915254238,0.1988831615120274,0.525703794369645,0.4776580062649714,0.4066561014263075,0.3709583089648258
0.2612009237875289,0.3393270343231778,0.5093042550669669,0.6980801866779804,0.2733295259851514,0.3793789199938809,0.6068000816826629,0.2237972508591065,0.5449051407588739,0.4931361709968675,0.4213946117274168,0.3853287659787784
0.2785796766743649,0.3534516004627844,0.5084745762711864,0.6823292320746712,0.2910336950314106,0.3902401713324155,0.5892383091688789,0.2487113402061855,0.5644889840881273,0.5075087525336283,0.4353803486529319,0.4002840671735316
0.2883371824480369,0.3550906286155033,0.492355102524594,0.6769198133220196,0.3083952027412907,0.3864157870582836,0.5465591178272411,0.2461340206185567,0.5662484700122399,0.5114243596830662,0.4412440570522979,0.4059236360598212
0.2899538106235566,0.3460759737755495,0.4669906364821619,0.6811624946966482,0.322215876641919,0.3710417622762735,0.4898917704717174,0.2338201603665521,0.5556915544675642,0.5088907315275475,0.4407686212361331,0.4062160581502214
0.2936489607390301,0.3362418048592364,0.4351072656157401,0.6848748408994484,0.3411764705882353,0.3529141808168884,0.4623238717582192,0.2505727376861397,0.5545440636474909,0.5108715680854984,0.4433438985736926,0.4087225332107946
0.3036374133949192,0.335422290782877,0.4124688870451581,0.6807382265591854,0.3619645916619075,0.3450359492121768,0.4730447212579129,0.3019759450171821,0.5700734394124847,0.5201308273447577,0.4503169572107765,0.4156988887960564
0.3096997690531178,0.3368684920940994,0.4035794713760815,0.6771849809079338,0.3722444317532839,0.3432767324460762,0.4851950173575658,0.3420675830469645,0.5843788249694002,0.5279620416436337,0.4572900158478605,0.4237196089898905
0.308891454965358,0.3350848438102584,0.4009719094464857,0.6785108188375053,0.3728155339805826,0.3410585895670797,0.48284664080049,0.3525200458190149,0.5843023255813953,0.5250598857564032,0.4568938193343899,0.4232600885621188
0.3043879907621247,0.3300231392209796,0.397771719805618,0.6833368689011455,0.3698458023986294,0.3360104023252256,0.4699816214008576,0.3420675830469645,0.5714504283965728,0.5181499907868068,0.4514263074484945,0.4184560113626869
0.3029445727482679,0.3266004627844196,0.3923195448619176,0.6859355112431057,0.3709880068532268,0.33149762888175,0.4710026546865427,0.3480813287514318,0.5682374541003672,0.5181960567532707,0.4513470681458003,0.4179964909349152
0.3072170900692841,0.3252506748939452,0.380111414009719,0.684662706830717,0.3811536264991434,0.3265259293253786,0.4899938738002859,0.3729954180985109,0.5770348837209303,0.5245070941588356,0.4563391442155309,0.4230929902247472
0.3113741339491917,0.3266486694947937,0.3751333412350361,0.682011030971574,0.3876641918903484,0.3259905155270001,0.5035736164998978,0.3896048109965635,0.5806303549571603,0.5269025244149623,0.4588748019017433,0.4255159161166346
0.3060046189376443,0.3221654454300038,0.3751333412350361,0.6869431480695799,0.3824100513992005,0.3223955943093162,0.4972432101286502,0.3762886597938144,0.5689259485924113,0.5190252441496223,0.4538034865293185,0.421338457682346
0.2964203233256351,0.3130543771693019,0.3724072537631859,0.696330080610946,0.3741861793260994,0.3142878996481566,0.4838676740861752,0.3520904925544101,0.5530140758873929,0.508061544131196,0.4444928684627575,0.4127746678920544
0.2938221709006928,0.310210181257231,0.3707478961716249,0.6990878235044548,0.3724728726442033,0.3115343429707817,0.4837655707576067,0.3423539518900343,0.5464351285189718,0.5043302008476138,0.4412440570522979,0.4094327011446236
0.3019630484988453,0.3150790590050135,0.3660068744814507,0.6927238014425117,0.3827527127355797,0.3139054612207434,0.4991831733714519,0.3575315005727377,0.5545440636474909,0.5085682697622996,0.444175911251981,0.4134848358258835
0.3077944572748268,0.3192730428075588,0.3643475168898898,0.6876856173101399,0.3893774985722445,0.3166590178981183,0.5131713293853379,0.3737113402061855,0.5619645042839657,0.5121153491800259,0.4470285261489699,0.4168685771576572
0.3023672055427252,0.3133918241419205,0.3610288017067678,0.6934132371658888,0.3856082238720731,0.3109224414869206,0.5078619562997754,0.3609679266895761,0.552172582619339,0.5052975861433573,0.4420364500792393,0.4102264182471384
0.2957274826789838,0.3034612418048593,0.3502429773616214,0.7019516334323291,0.3842375785265563,0.2995257763500076,0.4977537267714927,0.3404925544100801,0.5383261933904528,0.4970978441127695,0.4348256735340729,0.4031247389088478
0.2952655889145497,0.3037022753567296,0.351783809410928,0.702004666949512,0.3829811536264992,0.3002141655193514,0.4964263835001021,0.3324742268041237,0.5329712362301101,0.4947945457895707,0.4312995245641838,0.4003676163422174
0.3015588914549654,0.3116081758580794,0.3583027142349176,0.6947921086126432,0.3860651056539121,0.3086278109224415,0.5088829895854604,0.3449312714776632,0.5392441860465116,0.4982494932743689,0.433122028526149,0.4024563455593616
0.3056004618937644,0.3176340146548399,0.3648216190589072,0.6896478574459057,0.3868646487721303,0.3155117026158788,0.5236879722278945,0.3644043528064146,0.5475826193390453,0.5023032983231989,0.4364500792393027,0.4059654106441641
0.2992494226327944,0.3173929811029695,0.3772668009956145,0.6926707679253288,0.3746430611079384,0.3193360868900107,0.5222585256279354,0.3581042382588774,0.5446756425948592,0.4985719550396167,0.4325277337559429,0.4032500626618765
0.2890877598152425,0.3106922483609718,0.3815337205167713,0.7009970301230377,0.3625356938892062,0.3154352149303962,0.5166428425566674,0.3397766323024054,0.5339657282741738,0.4921687857011241,0.4254358161648178,0.3959812849862144
0.2866628175519631,0.3118492094099498,0.3894749318478132,0.7015273652948664,0.3562535693889206,0.3188771607771148,0.5219522156422299,0.343069873997709,0.5380201958384333,0.4931361709968675,0.4243660855784469,0.3951457932993567
0.292378752886836,0.3202371770150405,0.3983643475168899,0.6942617734408145,0.3576242147344375,0.3284381214624445,0.5410455380845415,0.3731386025200458,0.5549265605875153,0.5025796941219827,0.430229793977813,0.4016626284568468
0.2957852193995381,0.3278538372541458,0.4100983762000711,0.6885341535850658,0.3554540262707025,0.3382285452042221,0.5542168674698794,0.3960481099656357,0.5674724602203183,0.5094895890915792,0.436053882725832,0.4077199431865652
0.2938799076212471,0.3272271500192827,0.4125874125874125,0.6897539244802715,0.3522558537978298,0.3385344959461526,0.5477843577700633,0.3920389461626574,0.5666309669522644,0.5058964437073891,0.4348256735340729,0.4057147631381068
0.2861431870669746,0.321731585036637,0.4148393978902453,0.6962770470937633,0.3435750999428898,0.334863087042986,0.5368593016132325,0.3761454753722794,0.5592870257037943,0.5003224617652479,0.4301109350237718,0.3994485754866739
0.2844110854503464,0.3204300038565368,0.4153135000592627,0.6978150190920661,0.3416333523700743,0.3340217225026771,0.5343067183990198,0.3762886597938144,0.560205018359853,0.5009673852957435,0.4288431061806656,0.3976104937755869
0.2899538106235566,0.3241901272657154,0.41306151475643,0.6932011030971573,0.3481439177612793,0.3363163530671562,0.5500306309985704,0.4009163802978235,0.5711444308445532,0.5076469504330201,0.4335182250396197,0.4014955301194753
0.29405311778291,0.329733898958735,0.418395164157876,0.6882689859991514,0.3497430039977156,0.3423588802202845,0.5602409638554217,0.4162371134020618,0.5817778457772338,0.5133591302745532,0.4388668779714739,0.4062996073189072
0.2892609699769053,0.3281912842267643,0.4242029157283394,0.6913449299957574,0.3420902341519132,0.3430472693896282,0.5519705942413723,0.406786941580756,0.5777233782129743,0.5090289294269394,0.437202852614897,0.4036678085053053
0.2823903002309469,0.3209602776706518,0.4206471494607088,0.6984514212982604,0.3370645345516848,0.3361633776961908,0.5366550949560955,0.3824455899198167,0.5648714810281518,0.5004145936981758,0.4297939778129953,0.3957306374801571
0.2734988452655889,0.3187427689934439,0.4333293824819249,0.7037547730165464,0.3221016561964592,0.3385344959461526,0.5416581580559525,0.3821592210767468,0.5628824969400245,0.4997696701676802,0.4271394611727417,0.39389255576907
0.2745381062355658,0.3243829541072117,0.4451819367073604,0.700148493848112,0.3175328383780697,0.3467951659782775,0.5592199305697365,0.406786941580756,0.5760403916768666,0.5068638290031325,0.4316164817749604,0.3979029158659871
0.2748267898383372,0.3263112225221751,0.4493303306862629,0.6989817564700891,0.3157053112507139,0.3497016980266176,0.5711660200122524,0.4266895761741122,0.5857558139534883,0.5126681407775936,0.4362916006339145,0.4024563455593616
0.2674942263279446,0.323370613189356,0.4571530164750504,0.7039669070852779,0.3047401484865791,0.3498546733975829,0.5652440269552788,0.4206758304696448,0.580859853121175,0.5091210613598673,0.434310618066561,0.4002840671735316
0.258487297921478,0.3158503663709988,0.4571530164750504,0.712240135765804,0.2958309537407196,0.3438886339299373,0.5508474576271186,0.3964776632302405,0.5691554467564259,0.5022572323567349,0.4278129952456418,0.393934330353413
0.2586027713625866,0.3164770536058619,0.4584567974398483,0.7118689011455239,0.2952598515134209,0.3448064861557289,0.5525832142127833,0.399914089347079,0.568390452876377,0.5035010134512623,0.4276148969889065,0.3934330353412983
0.2647806004618938,0.3236598534516005,0.4634348702145313,0.7050806109461178,0.2990291262135923,0.3521493039620621,0.5693281600980192,0.4278350515463917,0.581548347613219,0.5116086235489221,0.4353011093502377,0.3999498704987885
0.2661662817551963,0.3281912842267643,0.4717316581723361,0.7019516334323291,0.2964020559680183,0.3583448064861557,0.5795384929548703,0.4445876288659793,0.5909577723378213,0.5173668693569191,0.4404516640253566,0.4059654106441641
0.2599884526558891,0.3259255688391824,0.4788431907075975,0.7059821807382266,0.2869217589948601,0.3588802202845342,0.5673881968552174,0.4295532646048109,0.5831548347613219,0.5128063386769854,0.4375990491283676,0.4026652184810761
0.251905311778291,0.3215387581951408,0.4847694678203152,0.7121340687314383,0.2760708166761851,0.3572739788893987,0.5513579742699612,0.4049255441008018,0.570608935128519,0.5043762668140778,0.4316561014263075,0.3974851700225583
0.2482101616628176,0.3221172387196298,0.493658883489392,0.7135129401781926,0.2680753854940034,0.3606394370506349,0.550541147641413,0.3990549828178694,0.568390452876377,0.5053897180762853,0.4319334389857369,0.3981953379563873
0.2517898383371825,0.326263015811801,0.4965034965034965,0.709588459906661,0.2702455739577384,0.3648462597521799,0.5618746171125178,0.4125143184421534,0.5746634026927784,0.511792887414778,0.436648177496038,0.4028323168184476
0.251905311778291,0.3305052063247204,0.5066966931373711,0.7072019516334322,0.2654483152484295,0.3715006883891693,0.5695323667551562,0.4191008018327605,0.5768053855569155,0.5137276580062651,0.4394611727416799,0.4064249310719358
0.2469976905311778,0.3294446586964906,0.5142823278416498,0.7100657615613067,0.2568817818389492,0.3731069297843047,0.553910557484174,0.3890320733104238,0.5638004895960832,0.5049290584116455,0.4341125198098257,0.4017044030411897
0.2392609699769053,0.324527574238334,0.5179566196515348,0.7163237165888842,0.2475157053112507,0.3703533731069298,0.5383908515417603,0.3571019473081329,0.5482711138310893,0.4963607886493459,0.4273771790808241,0.3948951457932993
0.2398960739030023,0.3234670266101041,0.5139267512148867,0.7165888841747984,0.2500285551113649,0.3682882055988985,0.5356340616704104,0.3460767468499426,0.5413096695226438,0.4933204348627235,0.4259112519809826,0.392430445317069
0.2454387990762125,0.3257809487080602,0.508356050728932,0.7127704709376326,0.258252427184466,0.3682882055988985,0.5467633244843781,0.356815578465063,0.5459761321909424,0.4968214483139856,0.4292789223454834,0.3956470883114713
0.2448036951501155,0.3275645969919012,0.5140452767571412,0.7120810352142554,0.2549400342661336,0.3715006883891693,0.5571778639983663,0.3676975945017182,0.5488066095471236,0.4996775382347522,0.4317749603803487,0.3989055058902164
0.240877598152425,0.3228885460856151,0.5106080360317649,0.7164828171404327,0.2526556253569389,0.3666819642037631,0.5507453542985501,0.359106529209622,0.5392441860465116,0.4937350285608992,0.4280507131537242,0.3942267524438132
0.2369515011547344,0.313102583879676,0.4944885622851725,0.7236423419601188,0.25653912050257,0.3537555453571975,0.5362466816418214,0.3382016036655211,0.5250917992656059,0.4846139672010319,0.4207606973058638,0.3866237780934079
0.2390877598152425,0.3085711531045121,0.4790802417921061,0.7251272804412388,0.2661336379211879,0.3451889245831421,0.5410455380845415,0.3409221076746849,0.5245563035495716,0.4836926478717524,0.4201664025356577,0.3848274709666638
0.2468822170900693,0.3145487851908985,0.4777764608273083,0.71828595672465,0.274357509994289,0.3494722349701698,0.5649377169695732,0.3688430698739977,0.5377141982864136,0.4910171365395246,0.4263470681458003,0.3908847856963823
0.2503464203233256,0.3218279984573853,0.4885622851724546,0.7127174374204497,0.272644203312393,0.3587272449135689,0.5838268327547478,0.3927548682703322,0.5481181150550796,0.4970978441127695,0.4318541996830428,0.3966914529200435
0.2468822170900693,0.3217797917470112,0.4955552921654616,0.7143084429359354,0.2657909765848087,0.361021875478048,0.5876046559117827,0.3910366552119129,0.5481946144430844,0.4944720840243229,0.4305071315372425,0.3957306374801571
0.2400692840646651,0.3170555341303509,0.4979258030105487,0.7200360627916843,0.2580239862935466,0.3579623680587425,0.5836226260976107,0.3734249713631156,0.5391676866585067,0.4880228487193661,0.4251980982567354,0.3897568719191244
0.2383371824480369,0.3159949865021211,0.4988740073485836,0.7214149342384387,0.2558537978298116,0.3574269542603641,0.5961813355115376,0.3844501718213058,0.5415391676866586,0.4898194214114612,0.4251188589540412,0.3892138023226669
0.2418591224018476,0.3176340146548399,0.495673817707716,0.7189223589308442,0.2607652769845803,0.3577329050022946,0.6285480906677557,0.4162371134020618,0.5563800489596084,0.4965450525152018,0.4306259904912837,0.394268527028156
0.2395496535796767,0.3198033166216737,0.5057484887993362,0.7187632583792957,0.2536836093660766,0.362704604558666,0.6530528895241984,0.427262313860252,0.5625764993880049,0.4988483508384006,0.433122028526149,0.3970256495947865
0.2318706697459584,0.3185017354415735,0.5183121962782979,0.7230059397539244,0.2399771559109081,0.3656876242924889,0.6516234429242392,0.4020618556701031,0.5501070991432069,0.4904182789754929,0.4275356576862124,0.3912607569554682
0.2251732101616628,0.3159949865021211,0.5258978309825767,0.7274607551972846,0.2296973158195317,0.3662230380908674,0.6449867265672861,0.3628293241695303,0.5312882496940025,0.4792703150912106,0.4193740095087164,0.3824880942434623
0.2200346420323325,0.3139220979560355,0.5314685314685315,0.7309609673313534,0.2219303255282696,0.3663760134618326,0.6588727792526037,0.3426403207331042,0.5244033047735618,0.4764602911369081,0.4163232963549921,0.3790208037430027
0.2216512702078522,0.3166698804473583,0.5347872466516533,0.7287335596096732,0.2219303255282696,0.3695884962521034,0.6779661016949152,0.3386311569301259,0.5275397796817626,0.4790399852588908,0.4192155309033281,0.382571643412148
0.2239607390300231,0.3237080601619745,0.5473509541306151,0.7238014425116673,0.2181610508280982,0.3792259446229157,0.6830712681233407,0.3311855670103092,0.5287637698898409,0.4812511516491616,0.422662440570523,0.3859553847439218
0.225635103926097,0.3281430775163902,0.5548180632926395,0.7205663979635129,0.2162193032552827,0.3851919840905614,0.6564222993669593,0.3038373424971363,0.5182068543451652,0.4752165100423807,0.4201664025356577,0.383657782605063
0.2255773672055427,0.3274681835711531,0.5533957567855873,0.7209906661009757,0.2169046259280411,0.3841211564938045,0.613232591382479,0.2690435280641466,0.5018359853121175,0.4684448129721761,0.4152931854199683,0.3791879020803743
0.2330254041570439,0.3295892788276128,0.5432025601517126,0.716376750106067,0.2292404340376928,0.3825914027841517,0.5759648764549724,0.2595933562428407,0.4980875152998776,0.4703795835636631,0.4163232963549921,0.380023393767232
0.2472863741339492,0.3322406478981874,0.5204456560388764,0.7083686890114552,0.2542547115933752,0.3773137524858497,0.546354911170104,0.2790664375715922,0.5058139534883721,0.4771973466003317,0.4215927099841521,0.3858300609908932
0.2532909930715936,0.3280948708060162,0.4979258030105487,0.7078913873568095,0.2710451170759566,0.3667584518892459,0.5239942822136001,0.3035509736540664,0.5109394124847001,0.4791781831582827,0.4243660855784469,0.3885036343888378
0.2502886836027714,0.3131989973004242,0.4674647386511792,0.717490453966907,0.2826956025128498,0.3451124368976594,0.5101082295282825,0.3097079037800687,0.5054314565483476,0.4745255205454211,0.4204833597464343,0.3852869913944356
0.2481524249422632,0.3094388738912456,0.4624866658764964,0.7205133644463301,0.2830382638492291,0.3405231757687012,0.4873391872575046,0.2898052691867125,0.4899020807833537,0.4655426570849457,0.4121632329635499,0.3773915949536302
0.2525981524249423,0.3116081758580794,0.4588123740666114,0.7172783198981756,0.2892061679040548,0.3410585895670797,0.4890749438431692,0.2988258877434134,0.4905140758873929,0.4664639764142252,0.4124801901743264,0.378185312056145
0.2613163972286375,0.3156575395295025,0.4507526371933151,0.7110203648705982,0.3017704169046259,0.3416704910509408,0.5061261997141107,0.3257445589919817,0.5035954712362302,0.4743412566795652,0.4195721077654517,0.3855794134848358
0.2627598152424942,0.3160913999228693,0.4489747540594997,0.7101187950784896,0.3040548258138207,0.3414410279944929,0.5192975290994486,0.3413516609392898,0.5097919216646266,0.4782107978625391,0.4233359746434231,0.3890884785696382
0.2561778290993072,0.3115117624373313,0.4512267393623325,0.7156873143826898,0.2964020559680183,0.3385344959461526,0.509189299571166,0.3215922107674684,0.4989290085679314,0.47254468398747,0.4187797147385103,0.3842008522015206
0.2489607390300231,0.3041843424604705,0.448026549721465,0.7230589732711074,0.2908052541404912,0.3316506042527152,0.491627527057382,0.2920962199312715,0.4819461444308445,0.4625483692647872,0.4102614896988906,0.3765978778511153
0.2472286374133949,0.3012919398380255,0.4443522579115799,0.725445481544336,0.2908052541404912,0.3282086584059966,0.4923422503573616,0.2896620847651775,0.4785036719706242,0.4618113138013635,0.4084389857369255,0.3750104436460857
0.2490762124711316,0.3043771693019668,0.4482636008059736,0.7228998727195588,0.2908052541404912,0.3319565549946459,0.5076577496426383,0.3099942726231386,0.4895195838433293,0.4686751428044961,0.4138668779714738,0.3803158158576322
0.2528868360277136,0.3076552256074045,0.4486191774327367,0.7193466270683071,0.2944603083952027,0.3346336239865382,0.5133755360424749,0.3187285223367697,0.4945685434516524,0.4719458264234384,0.4167591125198098,0.3834489096833486
0.2479792147806005,0.3060644041650597,0.4546639800877089,0.722422571064913,0.2866933181039406,0.3353220131558819,0.5046967531141514,0.2992554410080183,0.4848531211750306,0.4658190528837295,0.4127179080824089,0.3794385495864316
0.239838337182448,0.2992190512919399,0.4545454545454545,0.7299533305048791,0.2785836664762993,0.3298913874866146,0.4905043904431284,0.2724799541809851,0.4682527539779681,0.4564215957250783,0.4052694136291601,0.3710418581335116
0.2391454965357967,0.2973389895873505,0.4514637904468412,0.7313322019516334,0.2794974300399772,0.3273672938656876,0.4890749438431692,0.2721935853379152,0.466187270501836,0.4560530679933666,0.4034469096671949,0.3696632968501963
0.2466512702078522,0.302738141149248,0.4492118051440085,0.7249151463725074,0.2879497430039978,0.3308857273978889,0.5036757198284664,0.2942439862542955,0.4780446756425948,0.4644831398562742,0.4088351822503962,0.3760548082546578
0.2490184757505774,0.3051484766679522,0.4502785350242977,0.7224756045820958,0.2897772701313535,0.333180357962368,0.5117418827853788,0.3061282932416952,0.4825581395348837,0.4680302192740004,0.4117670364500792,0.3797309716768318
0.2426096997690531,0.3016775935210181,0.4549010311722176,0.727301654645736,0.2812107367218733,0.3319565549946459,0.4980600367571982,0.2813573883161512,0.4715422276621787,0.4605675327068362,0.4066561014263075,0.3738825298688277
0.235392609699769,0.2972425761666024,0.4588123740666114,0.7330823080186678,0.272187321530554,0.3296619244301667,0.4844802940575862,0.2548682703321878,0.4579253365973072,0.4522756587433205,0.3995641838351823,0.3665302030244799
0.2339491916859122,0.2973871962977246,0.4621310892497333,0.7336656767076792,0.2692175899486008,0.3308857273978889,0.4905043904431284,0.2597365406643757,0.4604498164014687,0.4544407591671274,0.400554675118859,0.3667390759461943
0.243013856812933,0.3058715773235634,0.464383074552566,0.7248090793381416,0.2770988006853227,0.3383050328897047,0.5120481927710843,0.2902348224513173,0.4760556915544676,0.4640224801916345,0.4077258320126783,0.3740496282061993
0.2463625866050808,0.3103065946779792,0.4684129429892141,0.7208315655494272,0.2784694460308395,0.3431237570751109,0.5224627322850725,0.3087056128293241,0.4856946144430844,0.4683987470057122,0.4118858954041205,0.3788537054056312
0.2377598152424942,0.3051484766679522,0.4733910157638971,0.7276198557488331,0.2675042832667048,0.3406761511396665,0.5114355727996732,0.2889461626575029,0.4775856793145654,0.462778699097107,0.4076069730586371,0.3749686690617428
0.2334295612009237,0.3009544928654069,0.4719687092568448,0.7319686041578277,0.2638492290119932,0.3368517668655346,0.4954053502144169,0.263602520045819,0.4650397796817626,0.4549935507646951,0.4031299524564184,0.3698303951875679
0.2386258660508083,0.3040397223293483,0.4688870451582316,0.7278850233347476,0.2704740148486579,0.3383050328897047,0.5002042066571369,0.2720504009163803,0.469094247246022,0.4576193108531417,0.4050316957210776,0.3715849277299691
0.2478060046189377,0.3096799074431161,0.4639089723835486,0.7205133644463301,0.2820102798400914,0.3412115649380449,0.5162344292423933,0.2978235967926689,0.4839351285189718,0.4673852957435047,0.4125198098256735,0.3792296766647171
0.2559468822170901,0.311945622830698,0.4528860969538935,0.7155812473483241,0.2953740719588807,0.3393758604864617,0.522564835613641,0.311282932416953,0.4925030599755202,0.4710705730606229,0.4162044374009509,0.382947614671234
0.2534064665127021,0.3080890860007713,0.448382126348228,0.7188162918964786,0.2950314106225015,0.334863087042986,0.5093935062283029,0.2915234822451317,0.480875152998776,0.464851667587986,0.4107765451664025,0.3784359595622024
0.2496535796766743,0.3048592364057076,0.4482636008059736,0.7223165040305473,0.2913763563677899,0.332338993422059,0.4908107004288339,0.2646048109965636,0.46687576499388,0.4567901234567901,0.4048732171156894,0.372336870248141
0.2572748267898384,0.3081372927111454,0.4406779661016949,0.7170131523122614,0.3025699600228441,0.3324919687930243,0.4922401470287931,0.2626002290950744,0.4680232558139535,0.4584024322830293,0.4061806656101426,0.3733812348567131
0.2685912240184757,0.3160913999228693,0.4368851487495555,0.7074671192193466,0.3155910908052542,0.3375401560348784,0.5126608127424954,0.2920962199312715,0.484547123623011,0.4679380873410724,0.4133914421553091,0.3812348567131757
0.2655311778290993,0.3186945622830698,0.4496859073130259,0.7074140857021637,0.3064534551684752,0.343735658558972,0.5227690422707779,0.2972508591065292,0.4889075887392901,0.4704717154965911,0.4159270998415214,0.3825298688278051
0.2593533487297922,0.3155129193983803,0.4545454545454545,0.7120280016970725,0.2980011422044546,0.3427413186476977,0.5135797426996119,0.2739117983963345,0.4778151774785801,0.4631011608623549,0.4107369255150555,0.3767649761884868
0.2547921478060047,0.3123312765136907,0.4560862865947611,0.7158994484514213,0.2927470017133067,0.3407526388251491,0.5026546865427813,0.252147766323024,0.4672582619339045,0.4554081444628709,0.4047543581616482,0.3705823377057398
0.2562933025404157,0.3129579637485538,0.4545454545454545,0.7148387781077641,0.2949171901770417,0.3407526388251491,0.5083724729426179,0.2578751431844215,0.4693237454100367,0.4567440574903262,0.4053882725832012,0.3706241122900827
0.2619515011547344,0.3163324334747397,0.4513452649045869,0.7103839626644038,0.3019988577955455,0.3423588802202845,0.527159485399224,0.2843642611683848,0.4820991432068544,0.4658190528837295,0.412202852614897,0.3770156236945442
0.2635103926096998,0.3170073274199769,0.4496859073130259,0.7093232923207466,0.3043974871501999,0.3423588802202845,0.536757198284664,0.2988258877434134,0.4899020807833537,0.4713009028929427,0.4161251980982567,0.3809842092071183
0.2581408775981524,0.3116563825684535,0.4475524475524475,0.7147327110733983,0.3000571102227299,0.3374636683493957,0.5278742086992035,0.2843642611683848,0.482328641370869,0.4668325041459371,0.4122424722662441,0.3770156236945442
0.2534642032332563,0.3084265329733899,0.4492118051440085,0.7186041578277471,0.2946887492861222,0.3354749885268471,0.5142944659995915,0.2614547537227949,0.469782741738066,0.4591855537129169,0.4062202852614897,0.3704152393683683
0.2553695150115473,0.3109332819128423,0.4514637904468412,0.716376750106067,0.2954882924043404,0.3381520575187394,0.50959771288544,0.2527205040091638,0.4665697674418604,0.4569283213561821,0.4057052297939779,0.3702899156153396
0.2584295612009238,0.3148862321635172,0.455019556714472,0.7127704709376326,0.2968589377498573,0.3424353679057672,0.5204206657137023,0.2668957617411225,0.4739902080783353,0.460936060438548,0.40986529318542,0.3747180215556855
0.2594688221709007,0.3153200925568839,0.4538343012919284,0.7120810352142554,0.2983438035408338,0.3423588802202845,0.527772105370635,0.2782073310423826,0.4805691554467564,0.464805601621522,0.4133914421553091,0.377475144122316
0.2535219399538106,0.3104512148091014,0.4540713523764371,0.717490453966907,0.2924043403769275,0.3386109836316353,0.518787012456606,0.2634593356242841,0.4729192166462668,0.4606596646397642,0.4089936608557845,0.3727128415072269
0.2439376443418014,0.3056787504820671,0.4621310892497333,0.7244908782350444,0.2790405482581383,0.3374636683493957,0.5076577496426383,0.2414089347079037,0.460296817625459,0.4539340335360236,0.4033676703645008,0.3667808505305372
0.2464780600461894,0.3119938295410721,0.4723242858836079,0.7198769622401356,0.2766419189034838,0.3457243383815205,0.5072493363283643,0.2333906071019472,0.458078335373317,0.4506633499170813,0.4028526148969889,0.3664048792714512
0.2547921478060047,0.3206710374084072,0.4765912054047647,0.7112855324565125,0.2828098229583096,0.3539850084136454,0.5170512558709414,0.2478522336769759,0.4645042839657283,0.4557306062281187,0.4070919175911252,0.371250731055226
0.2565819861431871,0.3235152333204782,0.4799099205878866,0.7088990241832838,0.2829240434037693,0.3572739788893987,0.5245047988564427,0.2600229095074455,0.4697062423500611,0.4599686751428046,0.4097068145800317,0.3747180215556855
0.2500577367205542,0.3146451986116467,0.4714946070878274,0.7168010182435299,0.2805254140491148,0.3475600428331039,0.5181743924851949,0.2464203894616265,0.4613678090575275,0.4563294637921504,0.4067353407290016,0.3707912106274542
0.2450923787528869,0.3093424604704975,0.4686499940737229,0.72199830292745,0.2770988006853227,0.3424353679057672,0.5068409230140902,0.222651775486827,0.4488219094247245,0.4484982494932744,0.4000000000000001,0.3649009942351073
0.2470554272517321,0.311945622830698,0.47102050491881,0.7196648281714043,0.2778983438035409,0.3452654122686248,0.505411476414131,0.2164948453608247,0.4453794369645042,0.4454578957066519,0.3984944532488115,0.363940178795221
0.2518475750577367,0.3148380254531431,0.4682944174469597,0.7158464149342384,0.2838378069674472,0.3467186782927949,0.5207269756994077,0.2355383734249713,0.4563953488372093,0.4502026902524415,0.4032884310618067,0.3691620018380817
0.253810623556582,0.3106440416505978,0.4539528268341827,0.7172783198981756,0.2927470017133067,0.3386874713171179,0.5340004084133143,0.2585910652920962,0.4677172582619339,0.4561451999262945,0.4072900158478606,0.3720444481577408
0.252309468822171,0.3079926725800231,0.4505155861088064,0.71939966058549,0.2928612221587665,0.3355514762123298,0.5268531754135184,0.2581615120274914,0.4643512851897184,0.4535194398378478,0.4041600633914421,0.3681594118138524
0.2488452655889146,0.302738141149248,0.4448263600805974,0.7238544760288501,0.2922901199314677,0.3295089490592015,0.5246069021850113,0.2507159221076747,0.4582313341493267,0.4488207112585222,0.3998415213946117,0.3631046871083632
0.2537528868360277,0.3109332819128423,0.4547825056299632,0.717119219346627,0.2922901199314677,0.3392228851154963,0.5309373085562589,0.2534364261168384,0.4606028151774786,0.4482679196609545,0.4002377179080824,0.3632717854457348
0.2622401847575058,0.3220208252988816,0.4647386511793291,0.7070958845990666,0.2958309537407196,0.3512314517362705,0.5532979375127629,0.2857961053837342,0.478656670746634,0.4571125852220379,0.407527733755943,0.3706241122900827
0.2684757505773673,0.3242865406864636,0.4575085931018134,0.7030123037759864,0.3055396916047973,0.350696037937892,0.5795384929548703,0.3224513172966781,0.497781517747858,0.4666021743136171,0.4148177496038035,0.3768067507728298
0.2639145496535797,0.3185017354415735,0.4525305203271305,0.7082626219770896,0.303483723586522,0.3445005354137984,0.5871962425975087,0.3323310423825887,0.5034424724602203,0.4695043302008476,0.4146196513470682,0.3782270866404879
0.2596997690531178,0.3131989973004242,0.4481450752637193,0.7131417055579126,0.3014277555682468,0.3388404466880832,0.5925056156830713,0.3326174112256586,0.5035189718482252,0.4680762852404644,0.4117670364500792,0.3762219065920294
0.2610277136258661,0.3154647126880062,0.4509896882778239,0.7112855324565125,0.301313535122787,0.3415940033654581,0.6114968347968143,0.3457903780068728,0.5083384332925336,0.4691358024691358,0.4130348652931854,0.3772662712006016
0.2657621247113164,0.3255399151561898,0.466042432144127,0.703542638947815,0.298686464877213,0.3544439345265412,0.6392689401674494,0.3665521191294387,0.5182068543451652,0.4736042012161415,0.4167591125198098,0.3803993650263179
0.2640877598152425,0.3300231392209796,0.4805025482991585,0.7018455663979635,0.2901199314677328,0.362704604558666,0.6599959158668572,0.3671248568155784,0.5224908200734394,0.4756771697070205,0.4177892234548336,0.3818614754783189
0.251905311778291,0.323370613189356,0.4890363873414721,0.7111264319049639,0.2740148486579098,0.3601040232522564,0.6596896058811517,0.3353379152348224,0.5104039167686658,0.4692279344020638,0.4117274167987322,0.3750939928147715
0.2420900692840647,0.3176340146548399,0.4951997155386986,0.7188162918964786,0.2612221587664192,0.3575799296313293,0.6620379824382274,0.299971363115693,0.494798041615667,0.4601990049751244,0.4046751188589541,0.3680758626451666
0.2403002309468822,0.3184535287311994,0.501007467109162,0.7191344929995758,0.2567675613934894,0.3601040232522564,0.6721462119665101,0.2786368843069874,0.4873011015911872,0.4558227381610466,0.4023375594294771,0.3662377809340797
0.2456120092378753,0.325684535287312,0.5077634230176603,0.7127704709376326,0.258709308966305,0.367982254856968,0.6852154380232796,0.2786368843069874,0.4920440636474908,0.458955223880597,0.4070522979397781,0.3710836327178544
0.2470554272517321,0.3307944465869649,0.5173639919402632,0.7092702588035639,0.2555111364934324,0.3751720972923359,0.6807228915662651,0.2802119129438716,0.4983170134638923,0.4637921503593146,0.4115293185419968,0.3755117386582003
0.25,0.3309872734284612,0.5117932914543084,0.7078383538396266,0.2611079383209595,0.3734893682117179,0.6415152133959567,0.26131156930126,0.491891064871481,0.462916896996499,0.4108954041204438,0.3753446403208288
0.2531177829099307,0.3309390667180871,0.5052743866303188,0.7064064488756894,0.2672758423757853,0.3713477130182041,0.5911782724116806,0.2372565864833906,0.4833231334149326,0.4596922793440207,0.4082012678288431,0.3739660790375135
0.2599884526558891,0.3332529888160432,0.4968590731302596,0.7019516334323291,0.2782410051399201,0.370506348477895,0.5469675311415152,0.2258018327605956,0.4784271725826193,0.4584484982494933,0.4088351822503962,0.3743002757122567
0.2697459584295612,0.3346509834168916,0.4802654972146498,0.696701315231226,0.2958309537407196,0.36629952577635,0.5180722891566264,0.2492840778923253,0.4835526315789474,0.462962962962963,0.4136687797147385,0.3786030578995739
0.273094688221709,0.3297821056691091,0.4614199359962072,0.697868052609249,0.3081667618503713,0.3563561266636071,0.5204206657137023,0.279495990836197,0.4921205630354957,0.4681684171733923,0.4171156893819334,0.3822374467374049
0.2688799076212472,0.3176340146548399,0.4402038639326775,0.7065125159100551,0.3142204454597373,0.3398347865993575,0.5133755360424749,0.2822164948453608,0.4886015911872705,0.4663257785148333,0.4138272583201268,0.3804411396106609
0.2653002309468822,0.3086193598148862,0.425388171150883,0.7130886720407297,0.3178754997144489,0.3279027076640661,0.5081682662854808,0.2754868270332187,0.4818696450428396,0.4626405011977151,0.4092709984152139,0.377475144122316
0.2680715935334873,0.3087639799460084,0.420054521749437,0.7117098005939754,0.3232438606510566,0.3262964662689307,0.5062283030426792,0.2873711340206185,0.4850061199510403,0.4640224801916345,0.4107765451664025,0.3790208037430027
0.2734411085450347,0.3132472040107983,0.420054521749437,0.7067776834959695,0.3284980011422045,0.3298913874866146,0.5196038390851542,0.3081328751431844,0.4957160342717258,0.4695503961673116,0.4162044374009509,0.384743921797978
0.2748845265588915,0.3128133436174315,0.4160246533127889,0.7063534153585066,0.3319246145059966,0.3282086584059966,0.5302225852562793,0.3185853379152348,0.4996175030599755,0.4724525520545421,0.4188589540412044,0.3875845935332943
0.2677251732101617,0.3059197840339375,0.4137726680099561,0.7134599066610097,0.3258709308966305,0.322013155881903,0.5222585256279354,0.3038373424971363,0.4915085679314565,0.4677998894416805,0.4141442155309033,0.3834906842676915
0.2637413394919168,0.3026417277284998,0.4138911935522105,0.717119219346627,0.3218732153055397,0.3194125745754933,0.5133755360424749,0.290807560137457,0.4827876376988984,0.4637460843928506,0.4102614896988906,0.3790625783273456
0.2635103926096998,0.306739298110297,0.4244399668128482,0.7149448451421297,0.3166190748143918,0.3261434908979654,0.5172554625280784,0.2936712485681557,0.4830171358629131,0.463055094895891,0.4102614896988906,0.3788119308212883
0.2674364896073903,0.3142595449286541,0.4348702145312315,0.7090050912176495,0.3153626499143347,0.3353985008413645,0.5301204819277108,0.3061282932416952,0.4900550795593635,0.4672470978441128,0.4143423137876387,0.3835742334363773
0.26864896073903,0.3159949865021211,0.4365295721227924,0.7075201527365295,0.3158195316961736,0.3373106929784305,0.53634878497039,0.3087056128293241,0.4937270501835984,0.4695503961673116,0.4162440570522979,0.3860807084969505
0.2645496535796767,0.3092942537601234,0.4285883607917506,0.7130356385235469,0.3155910908052542,0.3295089490592015,0.5315499285276699,0.2941008018327606,0.4859241126070991,0.4652662612861618,0.4120443740095087,0.3817361517252903
0.2624133949191686,0.3042807558812186,0.4206471494607088,0.7168010182435299,0.3173043974871502,0.3229310081076946,0.5262405554421073,0.2830756013745704,0.4775091799265606,0.460936060438548,0.4078050713153724,0.377851115381402
0.2639145496535797,0.3074623987659082,0.425388171150883,0.7143614764531183,0.3165048543689321,0.3269848554382744,0.5260363487849704,0.2832187857961054,0.4770501835985312,0.4601990049751244,0.4079239302694136,0.378185312056145
0.2689953810623556,0.3144041650597763,0.4320256015171269,0.7082095884599066,0.3183323814962879,0.3346336239865382,0.5357361649989789,0.3002577319587628,0.4861536107711138,0.4647134696885941,0.412797147385103,0.3832400367616342
0.2683025404157044,0.3140185113767836,0.4326182292283986,0.7087399236317352,0.31741861793261,0.3344806486155729,0.540535021441699,0.3019759450171821,0.4883720930232558,0.4665100423806892,0.4138272583201268,0.3832400367616342
0.2577944572748268,0.3072695719244119,0.4374777764608273,0.7172783198981756,0.3046259280411194,0.3307327520269236,0.5348172350418623,0.2878006872852233,0.4814106487148102,0.4625483692647872,0.4092709984152139,0.3784359595622024
0.2480369515011547,0.3024006941766294,0.4455375133341235,0.7244378447178617,0.2911479154768704,0.3294324613737188,0.531345721870533,0.2767754868270332,0.4746022031823745,0.4582642343836374,0.4052694136291601,0.373798980700142
0.247459584295612,0.3049556498264558,0.4531231480384022,0.7232711073398388,0.2868075385494004,0.3339452348171944,0.5324688584847865,0.277205040091638,0.474984700122399,0.4585406301824212,0.4060618066561014,0.3749268944773999
0.2519630484988452,0.3121384496721944,0.4614199359962072,0.7172783198981756,0.2872644203312394,0.3423588802202845,0.54594649785583,0.3006872852233676,0.4856181150550795,0.4649437995209139,0.4123217115689382,0.3808171108697468
0.250635103926097,0.3126205167759352,0.4653312788906009,0.7176495545184557,0.2840662478583667,0.3439651216154199,0.5534000408413313,0.3087056128293241,0.488142594859241,0.4676156255758246,0.4153724247226624,0.3846603726292923
0.2448614318706697,0.306160817585808,0.4613014104539528,0.7238014425116673,0.2804111936036551,0.3375401560348784,0.5439044312844599,0.2956758304696448,0.4825581395348837,0.464805601621522,0.4120839936608558,0.3809842092071183
0.2396651270207852,0.3000385653682993,0.4569159653905416,0.729582095884599,0.2773272415762421,0.3312681658253021,0.5352256483561364,0.2803550973654066,0.4772796817625458,0.4598304772434126,0.4076862123613313,0.3767649761884868
0.2438799076212471,0.3059197840339375,0.4627237169610051,0.7243848112006789,0.278697886921759,0.3378461067768089,0.5355319583418419,0.2827892325315005,0.4788861689106487,0.4610281923714759,0.40986529318542,0.3778093407970591
0.2518475750577367,0.3123794832240648,0.4622496147919877,0.7171722528638099,0.2868075385494004,0.3427413186476977,0.5462528078415356,0.3044100801832761,0.4887545899632802,0.4661875806154413,0.4142234548335975,0.3822792213217478
0.2547344110854503,0.3116563825684535,0.4545454545454545,0.7162706830717013,0.2934323243860651,0.3396818112283922,0.5502348376557075,0.3098510882016037,0.4898255813953488,0.466970702045329,0.4147385103011093,0.382571643412148
0.2506928406466513,0.3053895102198226,0.4474339220101931,0.7215740347899873,0.2928612221587665,0.3324919687930243,0.5392076781703083,0.292955326460481,0.4834761321909425,0.462778699097107,0.4102614896988906,0.3788954799899741
0.2465935334872979,0.3007616660239105,0.4444707834538343,0.7260288502333475,0.2901199314677328,0.3278262199785834,0.5261384521135388,0.27262313860252,0.4743727050183598,0.457158651188502,0.4055071315372425,0.375261091152143
0.2491916859122402,0.3037986887774778,0.446722768756667,0.723165040305473,0.2917190177041691,0.3309622150833716,0.5325709618133551,0.2764891179839633,0.4757496940024479,0.4581721024507094,0.4062995245641839,0.3766396524354582
0.2488452655889146,0.3092460470497493,0.460708782742681,0.7203012303775986,0.2845231296402056,0.3397582989138748,0.5435981212987543,0.2869415807560137,0.4828641370869033,0.4617652478348996,0.4111331220285262,0.381485504219233
0.2443418013856813,0.307317778634786,0.4652127533483465,0.7234302078913873,0.2780125642490006,0.3397582989138748,0.5524811108842148,0.2923825887743413,0.4860771113831089,0.4638842822922425,0.4133122028526149,0.3835742334363773
0.2377598152424942,0.3005206324720401,0.4620125637074789,0.7302184980907933,0.2729868646487722,0.3332568456478507,0.5423728813559322,0.2759163802978235,0.475673194614443,0.4587709600147412,0.408716323296355,0.3791879020803743
0.2312355658198614,0.2928075588121867,0.4564418632215242,0.7374310564276623,0.2692175899486008,0.325378614043139,0.5330814784561977,0.2580183276059565,0.4673347613219094,0.4540261654689516,0.4033676703645008,0.3741331773748851
0.2331986143187067,0.2902043964519861,0.4460116155031409,0.7379613915994908,0.2761850371216448,0.3199479883738718,0.5381866448846232,0.2646048109965636,0.4714657282741738,0.454947484798231,0.4050713153724247,0.3750939928147715
0.2394341801385681,0.29815850366371,0.4527675714116391,0.7307488332626219,0.2790405482581383,0.3284381214624445,0.5476822544414948,0.2780641466208476,0.4775856793145654,0.4578496406854616,0.4097068145800317,0.3788537054056312
0.2377598152424942,0.29815850366371,0.4562048121370155,0.731491302503182,0.2757281553398058,0.3295854367446841,0.5504390443128445,0.2835051546391752,0.4785801713586291,0.4584484982494933,0.4104199683042789,0.3799816191828891
0.2296189376443418,0.2866370998843039,0.444707834538343,0.7415676707679253,0.2732153055396916,0.3166590178981183,0.5425770880130693,0.2674684994272622,0.4702417380660954,0.4541182974018795,0.4053882725832012,0.3748015707243713
0.2217667436489607,0.280418434246047,0.4454189877918691,0.7486211285532456,0.26521987435751,0.3119932690836775,0.5370635082703695,0.252290950744559,0.4627447980416156,0.449281370923162,0.3992076069730587,0.369788620603225
0.2251154734411085,0.2865406864635557,0.4535972502074196,0.7436890114552397,0.2645345516847516,0.319489062260976,0.5399224014702879,0.2575887743413517,0.4653457772337821,0.4502948221853695,0.4004754358161648,0.3724204194168267
0.228810623556582,0.2938198997300424,0.4639089723835486,0.7380144251166737,0.2631639063392347,0.3285910968334097,0.5507453542985501,0.27262313860252,0.4719247246022032,0.454947484798231,0.4066957210776545,0.3783106358091737
0.226270207852194,0.2942537601234092,0.4701908261230295,0.7389159949087823,0.2576813249571674,0.3309622150833716,0.5541147641413109,0.2779209621993126,0.474984700122399,0.4566058595909343,0.4082408874801902,0.3802740412732893
0.2164549653579676,0.2861068260701889,0.4703093516652838,0.7479316928298685,0.2478583666476299,0.32453724950283,0.5438023279558913,0.2542955326460481,0.464657282741738,0.4515846692463608,0.4026545166402536,0.3757206115799147
0.2107390300230947,0.2818164288468955,0.471376081545573,0.7529168434450572,0.2418046830382638,0.3214777420835245,0.5311415152133959,0.2323883161512027,0.4533353733170134,0.4477151280633868,0.398811410459588,0.371626702314312
0.2111431870669746,0.2862514462013112,0.4815692781794476,0.7502651675859142,0.2372358652198744,0.3282851460914793,0.5390034715131713,0.2449885452462772,0.4593023255813953,0.4505251520176894,0.4024167987321712,0.3749268944773999
0.2070438799076212,0.2956999614346317,0.5132155979613606,0.746977089520577,0.2179326099371787,0.3460302891234511,0.5645293036552992,0.2900916380297823,0.4857711138310893,0.460982126405012,0.4100237717908083,0.3798562954298605
0.1921478060046189,0.3002795989201697,0.5550551143771483,0.7512728044123885,0.1829811536264992,0.3631635306715619,0.6073105983255054,0.3993413516609393,0.5429926560587516,0.4840151096370003,0.4197305863708399,0.3831564875929484
0.1792147806004619,0.298736984188199,0.5778120184899845,0.7580610946117946,0.1593375214163335,0.3692060578246902,0.6379415968960588,0.5449599083619702,0.6145195838433293,0.5169062096922794,0.4317749603803487,0.386247806834322
0.175,0.3157539529502507,0.6283038994903402,0.7506364022061942,0.1307824100513992,0.3990362551629188,0.6431488666530528,0.6424684994272623,0.6828335373317014,0.5622811866592962,0.4643026941362916,0.4131506391511404
0.2022517321016166,0.3490165831083687,0.6542609932440441,0.7198239287229529,0.1451741861793261,0.4338381520575187,0.6125178680824994,0.6401775486827033,0.7193237454100367,0.6142896627971255,0.5256339144215532,0.4782354415573565
0.251905311778291,0.3841110682607019,0.6384970961242147,0.6777153160797624,0.2019417475728155,0.456554994645862,0.568307126812334,0.6440435280641466,0.7765452876376989,0.6973466003316751,0.6278129952456418,0.5893558359094326
0.3336027713625866,0.4181932124951794,0.5545810122081308,0.6214467543487483,0.3231296402055968,0.4564785069603794,0.4831529507861956,0.6378865979381443,0.8525856793145655,0.8155518702782384,0.7749207606973059,0.7517754198345725
0.4160508083140878,0.441525260316236,0.4426929003200189,0.5707467119219347,0.4587093089663051,0.4388863392993727,0.3733918725750459,0.5820446735395188,0.8867044063647491,0.9081444628708312,0.8996434231378764,0.8929317403291837
0.4881062355658199,0.456421133821828,0.3312788906009244,0.5294866355536699,0.5835522558537979,0.414792718372342,0.2609761078211149,0.4895475372279496,0.8414932680538555,0.9271236410539891,0.9483359746434232,0.9592697802656864
0.5088337182448037,0.4710277670651755,0.3247599857769349,0.5119325413661434,0.6071958880639635,0.424277191372189,0.2229936695936287,0.433848797250859,0.7562729498164014,0.8618021006080709,0.901703645007924,0.9274793215807502
0.4637413394919169,0.4775356729656768,0.4334479080241791,0.5290093338990242,0.5103369503141063,0.4645097139360563,0.2641413110067387,0.3416380297823597,0.5933292533659731,0.6849087893864013,0.7404912836767036,0.781310050964993
0.395554272517321,0.4092749710759737,0.4054758800521512,0.5978998727195587,0.4563106796116505,0.4013308857273979,0.3665509495609556,0.2517182130584192,0.380125458996328,0.4485903814262024,0.5014263074484945,0.5482496449160331
0.2753464203233257,0.2874566139606633,0.3527320137489629,0.7201421298260501,0.3627641347801257,0.2876701851001988,0.5247090055135797,0.2286655211912943,0.1969094247246021,0.2104293348074442,0.2352218700475436,0.2739994987049879
0.1297921478060046,0.1922965676822213,0.4175654853620955,0.8393084429359354,0.1876641918903484,0.2330579776655958,0.6840923014090259,0.243127147766323,0.0930232558139534,0.0536207849640685,0.0513074484944532,0.0787033169019968
0.0471709006928406,0.1557076745082915,0.4972146497570226,0.8973801442511666,0.0675042832667048,0.2297690071898424,0.7831325301204819,0.2243699885452462,0.0679314565483476,0.0170904735581352,0.0032091917591124,0.0216810092739577
0.0467090069284064,0.1410046278441959,0.4620125637074789,0.9057064064488756,0.0839520274129069,0.2067462138595686,0.8691035327751685,0.3890320733104238,0.1705171358629131,0.091717339229777,0.0583993660855784,0.0609073439719274
0.0513856812933025,0.1662649440802159,0.5145193789261585,0.8896372507424691,0.0632781267846944,0.243766253633165,0.9325096998162138,0.5735967926689576,0.3178549571603427,0.2014004053805049,0.1466323296354992,0.1319659119391762
0.0610854503464203,0.1992383339760894,0.5757970842716604,0.867044972422571,0.0434037692747001,0.2896588649227474,0.9210741270165408,0.6416093928980526,0.3880048959608323,0.27745531601253,0.2160063391442155,0.1930403542484752
0.0843533487297921,0.2135557269571924,0.5631148512504445,0.8484832414085701,0.0725299828669332,0.296925195043598,0.85664692668981,0.5833333333333334,0.3746175030599755,0.312511516491616,0.2589936608557845,0.2351073606817612
0.1203233256351039,0.2331758580794447,0.5373948085812492,0.8211709800593975,0.1205025699600228,0.3041915251644485,0.8082499489483356,0.6079610538373424,0.4169981640146878,0.3568730421964253,0.3003565768621236,0.2722449661625867
0.1546766743648961,0.2506266872348631,0.5098968827782386,0.7958209588459906,0.1677898343803541,0.30916322472082,0.7511741882785378,0.6393184421534936,0.4899020807833537,0.4098949695964621,0.3433438985736926,0.3091319241373548
0.1721709006928407,0.2573274199768608,0.4904586938485243,0.7840475180313958,0.1944031981724729,0.3081688848095456,0.6616295691239533,0.5091638029782359,0.49625152998776,0.4318684355997789,0.3646592709984153,0.3298103433870833
0.1767898383371824,0.2504820671037409,0.4641460234680574,0.7857445905812472,0.2116504854368932,0.2942481260517057,0.5750459464978558,0.3585337915234822,0.4667992656058751,0.4274461028192372,0.3641442155309033,0.3296850196340546
0.179445727482679,0.244841881989973,0.4448263600805974,0.7876007636826473,0.2236436322101656,0.2836163377696191,0.5445170512558709,0.2961053837342496,0.4546358629130967,0.4250967385295744,0.3631141045958795,0.3288913025315398
0.186662817551963,0.2445044350173544,0.4291809885030224,0.7844717861688586,0.238263849229012,0.2782621997858345,0.5469675311415152,0.2902348224513173,0.4561658506731946,0.4279988944168049,0.3667987321711569,0.3334029576405715
0.1934757505773672,0.2480717315850366,0.4239658646438308,0.7793805685193042,0.2475157053112507,0.279409515068074,0.5554421074127016,0.3038373424971363,0.4650397796817626,0.4341256679565137,0.3734548335974644,0.3396273707076614
0.1924942263279446,0.2451311222522175,0.4186322152423847,0.7814488756894357,0.2491147915476871,0.2753556677374942,0.5517663875842352,0.3039805269186712,0.4664167686658507,0.4377188133407039,0.3758320126782884,0.3425098170273205
0.1897806004618938,0.2380447358272271,0.4070167121014578,0.786593126856173,0.2520845231296402,0.2659476824231299,0.5375740249132122,0.2850801832760595,0.4593788249694002,0.4360604385480008,0.3742472266244057,0.3402122148884619
0.1875866050808314,0.2336097184728114,0.4004978072774683,0.7900403054730589,0.2529982866933181,0.2603640813828973,0.5354298550132733,0.2706185567010309,0.4538708690330477,0.4333425465266262,0.3716719492868463,0.3371208956470883
0.1924364896073903,0.2368877747782491,0.3986013986013985,0.7860097581671617,0.258709308966305,0.2623527612054459,0.5397181948131509,0.2752004581901489,0.4550183598531211,0.4344941956882255,0.3729001584786054,0.337956387333946
0.1977482678983834,0.2436367142306209,0.4042906246296077,0.7798578701739498,0.2612221587664192,0.2695426036408138,0.546354911170104,0.2842210767468499,0.4612913096695226,0.4373963515754561,0.3753565768621236,0.3405046369788621
0.1950346420323325,0.2444080215966062,0.411757733791632,0.7807064064488757,0.2549400342661336,0.2725256233746367,0.5525832142127833,0.2829324169530354,0.4612913096695226,0.4370738898102082,0.3751980982567353,0.3415907761717771
0.1876443418013857,0.2388160431932125,0.4131800402986844,0.7871764955451845,0.246944603083952,0.2685482637295395,0.5429855013273432,0.2610252004581901,0.4508108935128518,0.4295190713101161,0.3692551505546751,0.3351157155986297
0.1856812933025404,0.2339953721558041,0.4053573545098969,0.7906767076792532,0.2487721302113079,0.2622762735199633,0.5340004084133143,0.2402634593356243,0.4401774785801713,0.423806891468583,0.3647781299524564,0.3298103433870833
0.1864896073903002,0.236261087543386,0.4092686974042906,0.7890857021637674,0.2477441462021702,0.2653357809392688,0.5434960179701858,0.2531500572737686,0.4434669522643819,0.4256495301271421,0.3661648177496038,0.3314395521764558
0.188337182448037,0.2394909371384497,0.413417091383193,0.7864340263046244,0.2475157053112507,0.2691601652134006,0.5538084541556054,0.2644616265750286,0.4494339045287637,0.4281831582826608,0.3683438985736925,0.3332776338875428
0.1886258660508083,0.2377554955649826,0.4084390186085102,0.7872825625795502,0.2501427755568247,0.2662536331650604,0.5542168674698794,0.2591638029782359,0.4482099143206854,0.425925925925926,0.3659270998415214,0.3301445400618263
0.1818706697459584,0.2269571924411878,0.3958753111295484,0.7962982605006363,0.249571673329526,0.2536331650604252,0.5438023279558913,0.238545246277205,0.4355875152998776,0.4193845586880412,0.3596275752773376,0.3228339878018214
0.1772517321016166,0.2221365214037794,0.3935048002844613,0.8010712770470937,0.2461450599657339,0.249043903931467,0.5383908515417603,0.2199312714776632,0.425642594859241,0.4147779620416437,0.3538431061806656,0.3169019968251316
0.1804849884526559,0.2340917855765522,0.4163802299395519,0.7930101824352991,0.238263849229012,0.2658711947376472,0.5449254645701449,0.2212199312714776,0.4265605875152999,0.4141330385111479,0.3527337559429477,0.3167766730721029
0.1834295612009238,0.2429618202853837,0.4320256015171269,0.7868052609249045,0.2336950314106225,0.2779562490439039,0.5576883806412088,0.2457044673539518,0.4379589963280293,0.4189699649898655,0.3570126782884311,0.3213301027654774
0.1818706697459584,0.2433956806787504,0.4362925210382837,0.7872825625795502,0.2301541976013707,0.2797154658100045,0.5600367571982846,0.2436998854524627,0.4382649938800489,0.4186935691910816,0.3557448494453249,0.3199515414821622
0.1718822170900693,0.2358754338603933,0.4383074552566078,0.7959800593975391,0.2191890348372359,0.2743613278262199,0.553910557484174,0.2260882016036655,0.4284730722154222,0.4137184448129722,0.3502377179080824,0.3136018046620435
0.1689376443418014,0.2335615117624373,0.4386630318833709,0.7986317352566822,0.216105082809823,0.2726785987456019,0.5552379007555646,0.2240836197021763,0.4254130966952264,0.4120140040538051,0.3469492868462758,0.311262427938842
0.1733256351039261,0.2385268029309679,0.4418632215242385,0.7938587187102248,0.2189605939463164,0.2776502983019733,0.5684092301409025,0.2406930126002291,0.4339045287637699,0.4157914133038511,0.3495245641838352,0.3142701980115298
0.1785796766743649,0.2432028538372541,0.4425743747777646,0.788873568095036,0.2237578526556254,0.2815511702615879,0.5793342862977333,0.256729667812142,0.4428549571603427,0.4205822738161046,0.3534072900158479,0.3168184476564458
0.1782909930715935,0.2428654068646355,0.4423373236932559,0.7892448027153159,0.2236436322101656,0.2811687318341747,0.5784153563406167,0.2555841924398625,0.4420899632802937,0.4194766906209692,0.3522583201267829,0.3157323084635308
0.1706697459584296,0.2357790204396452,0.4404409150171862,0.7966164616037335,0.2170188463735009,0.274973229310081,0.5659587502552583,0.2361111111111111,0.4295440636474908,0.4124746637184449,0.3454833597464342,0.3090901495530119
0.1706120092378753,0.2303316621673737,0.4271660542846983,0.7996393720831565,0.2233009708737864,0.2663301208505431,0.5590157239125995,0.2235108820160366,0.4222766217870257,0.4082826607702229,0.3405705229793977,0.3031163839919792
0.1788683602771363,0.2346220593906672,0.4208842005452175,0.7934874840899447,0.2346087949743004,0.2677068991892305,0.5634061670410455,0.2263745704467353,0.4267135862913096,0.4108162889257417,0.342393026941363,0.3047873673656947
0.1836027713625866,0.2417084458156575,0.4285883607917506,0.7874416631310988,0.2355225585379783,0.2758910815358727,0.5740249132121708,0.2422680412371133,0.4342105263157895,0.4147779620416437,0.3462757527733756,0.3084635307878686
0.1839491916859122,0.2422869263401465,0.4292995140452768,0.7869643614764531,0.2355225585379783,0.2765029830197338,0.5747396365121503,0.2396907216494845,0.4317625458996327,0.4138566427123641,0.3455625990491284,0.3081293341131256
0.1726905311778291,0.236261087543386,0.4375963020030816,0.7953966907085278,0.220445459737293,0.2744378155117026,0.5665713702266694,0.2162084765177548,0.4205171358629131,0.4057029666482403,0.3379952456418383,0.2996908680758626
0.1663394919168591,0.2331276513690706,0.4429299514045277,0.8000636402206194,0.2115362649914335,0.2736729386568762,0.5615683071268123,0.1947308132875143,0.4118727050183598,0.3987009397457158,0.3311806656101426,0.2919625699724287
0.1706697459584296,0.2392981102969533,0.4492118051440085,0.7947072549851506,0.2127926898914906,0.2806333180357962,0.572901776597917,0.200028636884307,0.4178396572827417,0.4008199742030588,0.3322503961965135,0.2928398362436294
0.1758083140877598,0.2452757423833397,0.453360199122911,0.7890326686465846,0.2158766419189035,0.2866758451889246,0.5861752093118234,0.2140607101947308,0.4268665850673194,0.4059332964805602,0.3367274167987322,0.2968919709248893
0.1719976905311778,0.2434438873891245,0.4566789143060329,0.7917904115400933,0.2105082809822958,0.2862934067615114,0.5847457627118643,0.2070446735395189,0.4246481028151775,0.4034457342915055,0.3351822503961965,0.2945943687860305
0.1663394919168591,0.236839568067875,0.452056418158113,0.7979953330504879,0.2071958880639635,0.2795624904390393,0.5764753930978149,0.1924398625429553,0.4123317013463892,0.3957066519255574,0.327892234548336,0.2865736485921965
0.1646651270207852,0.2334650983416892,0.4471968709256845,0.8006470089096308,0.2077669902912622,0.2752791800520116,0.5672860935266489,0.1705326460481099,0.4037637698898408,0.3899484061175604,0.3218304278922346,0.2801403626033921
0.1697459584295612,0.2403586579251832,0.453715775749674,0.794495120916419,0.2097087378640777,0.2829279486002753,0.5750459464978558,0.1769759450171821,0.4100367197062423,0.3929426939377188,0.3240491283676704,0.2819366697301361
0.1751154734411085,0.2485537986887775,0.4628422425032594,0.7875477301654645,0.2106225014277556,0.2923359339146397,0.5853583826832754,0.1849942726231386,0.4167686658506732,0.396535839321909,0.3277337559429477,0.2859052552427103
0.1760392609699769,0.2499035865792518,0.4642645490103118,0.7863809927874417,0.210850942318675,0.2938656876242925,0.5773943230549315,0.1713917525773196,0.4111077111383109,0.3931269578035747,0.3257527733755943,0.2854875093992814
0.169919168591224,0.2456131893559583,0.4662794832286357,0.791525243954179,0.2038834951456311,0.2911121309469175,0.5655503369409842,0.1447594501718213,0.3988678090575275,0.3865395245992261,0.3199286846275753,0.2803910101094494
0.1682448036951501,0.2459024296182028,0.4704278772075382,0.7921616461603733,0.2001142204454597,0.2926418846565702,0.5588115172554624,0.1261454753722794,0.3936658506731946,0.382808181315644,0.3160063391442155,0.2777592112958476
0.1722286374133949,0.2529888160431932,0.479672869503378,0.7864340263046244,0.1996573386636208,0.3012849931161083,0.5560547273841127,0.1237113402061855,0.3951193390452875,0.3841440943430993,0.3176703645007924,0.2798897150973348
0.1792147806004619,0.2626783648283841,0.4891549128837263,0.7778956300381841,0.2020559680182753,0.3119932690836775,0.5561568307126812,0.1255727376861397,0.3991738066095471,0.38681592039801,0.3211568938193344,0.2840671735316233
0.1785796766743649,0.2654261473197069,0.4972146497570226,0.7766758591429783,0.1974871501998858,0.3168119932690836,0.5531958341841944,0.1164089347079038,0.3946603427172583,0.3860327989681223,0.320364500792393,0.2834823293508229
0.1751732101616628,0.2615696104897802,0.4948441389119355,0.7803351718285956,0.195202741290691,0.3129876089949518,0.5439044312844599,0.0975085910652921,0.3888463892288861,0.3821632577851483,0.3170364500792393,0.2816024730553931
0.1766743648960739,0.2601716158889317,0.4882067085456916,0.7804412388629614,0.1998857795545403,0.3096986385191984,0.5348172350418623,0.081758304696449,0.383797429620563,0.380873410724157,0.3151743264659271,0.2815606984710502
0.1848152424942263,0.2683667566525261,0.4917624748133222,0.7721680101824353,0.2062821245002856,0.3174238947529447,0.5420665713702266,0.095360824742268,0.3900703794369645,0.3856642712364105,0.3199286846275753,0.2864900994235107
0.1926096997690531,0.275838796760509,0.494014460116155,0.7645311837081035,0.2129069103369503,0.3240018357044515,0.5501327343271389,0.1168384879725085,0.402157282741738,0.3916528468767274,0.3250396196513471,0.2910435291168853
0.1943995381062356,0.276417277284998,0.4917624748133222,0.7633644463300806,0.2157624214734437,0.3237723726480037,0.5529916275270573,0.1284364261168385,0.4101132190942472,0.3947853325962779,0.327892234548336,0.2928398362436294
0.1866050808314087,0.2661492479753182,0.4825174825174825,0.7725922783198981,0.2124500285551114,0.3126051705675386,0.5452317745558505,0.1217067583046964,0.4063647490820073,0.3935876174682144,0.3256339144215531,0.2914612749603141
0.1878175519630485,0.2642209795603548,0.4752874244399667,0.7730695799745438,0.2172472872644203,0.3087807862934068,0.5460486011843986,0.1215635738831615,0.4085067319461444,0.3949695964621338,0.3278526148969889,0.2935082295931155
0.1997690531177829,0.2743925954492865,0.4757615266089842,0.7620386084005091,0.2287835522558538,0.3170414563255316,0.5572799673269349,0.1481958762886597,0.4269430844553243,0.4047355813524968,0.3374009508716323,0.3027821873172361
0.2117205542725173,0.2853355187042036,0.4781320374540714,0.7504773016546457,0.2395202741290691,0.326449441639896,0.5742291198693077,0.186139747995418,0.4502753977968176,0.4163902708678828,0.3480982567353408,0.3133511571559862
0.2106235565819861,0.2867817200154261,0.4840583145667891,0.7502121340687314,0.2355225585379783,0.3295089490592015,0.5808658362262609,0.2064719358533791,0.4647337821297429,0.4240832872673669,0.3549524564183835,0.3193666973013618
0.209526558891455,0.2877458542229079,0.4885622851724546,0.7502121340687314,0.2323243860651057,0.331727091938198,0.5762711864406779,0.2107674684994272,0.4686352509179926,0.4274921687857012,0.357527733755943,0.3211630044281059
0.2151847575057737,0.293000385653683,0.4899845916795068,0.744696648281714,0.2371216447744146,0.3363163530671562,0.5857667959975494,0.2289518900343642,0.4822521419828641,0.4354155150175051,0.3625198098256735,0.3251315899406801
0.2229214780600462,0.3020150404936367,0.4961479198767334,0.7361582520152736,0.2419189034837236,0.3454948753250726,0.6079232182969164,0.2548682703321878,0.4987760097919216,0.445365763773724,0.3704833597464342,0.3322332692789707
0.2255773672055427,0.311367142306209,0.5136897001303781,0.7297942299533305,0.236093660765277,0.3585742695426036,0.6273228507249337,0.274770904925544,0.5168298653610771,0.4561451999262945,0.380229793977813,0.3416325507561199
0.2203810623556582,0.3125723100655611,0.527320137489629,0.7315443360203648,0.224328954882924,0.3639284075263882,0.6367163569532367,0.2762027491408935,0.5252447980416156,0.4620416436336835,0.3858557844690967,0.3461024312808087
0.2142609699769053,0.3083301195526417,0.5294535972502074,0.7366885871871023,0.2172472872644203,0.3612513385344959,0.6317132938533796,0.2459908361970217,0.5193543451652387,0.4621337755666114,0.385459587955626,0.3466037262929234
0.2162817551963048,0.3103065946779792,0.5301647505037335,0.7346733135341535,0.2189605939463164,0.3630870429860792,0.6242597508678782,0.2252290950744559,0.5204253365973072,0.4668785701124009,0.3907290015847861,0.3520761968418414
0.2239030023094688,0.323370613189356,0.546639800877089,0.7239605430632159,0.2185037121644775,0.3787670185100198,0.6251786808249948,0.2266609392898052,0.5333537331701346,0.476736686935692,0.4013074484944533,0.3638566296265352
0.2371824480369515,0.3393270343231778,0.5586108806447789,0.7091111582520153,0.2258138206739006,0.3952118708887868,0.6218092709822339,0.2419816723940435,0.5501835985312117,0.4894969596462134,0.4138272583201268,0.3767649761884868
0.2484411085450346,0.345160046278442,0.5498399905179566,0.7007318625371235,0.2412335808109652,0.3970475753403701,0.5930161323259138,0.2442726231386025,0.5567625458996328,0.4977427676432652,0.4225435816164818,0.3850781184727212
0.2524249422632795,0.3422676436559969,0.5345501955671448,0.7004666949512092,0.2525414049114792,0.3897812452195196,0.5512558709413927,0.2388316151202749,0.5570685434516524,0.5008291873963516,0.4260697305863709,0.3884200852201521
0.2606235565819862,0.3383629001156961,0.5082375251866778,0.6988756894357233,0.2733295259851514,0.3782316047116414,0.5096998162140085,0.245418098510882,0.5579100367197062,0.505850377740925,0.4316561014263075,0.3943520761968418
0.274364896073903,0.3364346317007328,0.4751688988977125,0.6936253712346202,0.3027984009137636,0.3660700627199021,0.4806003675719828,0.2733390607101947,0.5657894736842105,0.513773723972729,0.4398177496038035,0.4017461776255326
0.2822748267898383,0.3324334747396837,0.4490932796017541,0.6921934662706831,0.3232438606510566,0.3544439345265412,0.4831529507861956,0.3245990836197021,0.5810893512851897,0.5222037958356367,0.44770206022187,0.4083047873673656
0.2826789838337182,0.321153104512148,0.4205286239184544,0.6982392872295291,0.337407195888064,0.3362398653816736,0.4845823973861548,0.3529495990836196,0.5857558139534883,0.5252441496222592,0.449960380348653,0.4105188403375386
0.280080831408776,0.3163324334747397,0.4140097190944648,0.7020577004666949,0.3379782981153627,0.3303503135995104,0.4774351643863589,0.3509450171821305,0.5782588739290085,0.5218813340703888,0.4462361331220286,0.4073439719274793
0.2834295612009238,0.3184535287311994,0.4123503615029039,0.6993529910903691,0.3420902341519132,0.33149762888175,0.482642434143353,0.3642611683848797,0.5797888616891065,0.5238161046618758,0.4468700475435816,0.409641574066338
0.2880484988452656,0.3197551099112997,0.406068507763423,0.6965422146796775,0.3496287835522559,0.3305032889704757,0.4953032468858485,0.395475372279496,0.5893512851897185,0.529251888704625,0.45229793977813,0.4167850279889715
0.2867782909930716,0.3209602776706518,0.4115206827071234,0.6964361476453118,0.3457452884066248,0.3332568456478507,0.5094956095568715,0.4166666666666667,0.594859241126071,0.5310484613967201,0.4557052297939778,0.4204611914111454
0.2837182448036952,0.3174893945237177,0.4093872229465449,0.6997242257106492,0.3438035408338093,0.3297384121156494,0.5043904431284459,0.4070733104238259,0.585220318237454,0.5267182605491063,0.4526148969889065,0.416576155067257
0.2767898383371825,0.3062572310065561,0.3959938366718028,0.7091111582520153,0.3433466590519703,0.3165825302126357,0.4964263835001021,0.3827319587628865,0.5679314565483476,0.5162612861617837,0.4435419968304279,0.4068426769153647
0.2710161662817552,0.2991708445815658,0.390423136185848,0.715634280865507,0.3403769274700172,0.30916322472082,0.5022462732285072,0.3798682703321878,0.5599755201958384,0.5116086235489221,0.4382329635499207,0.401955050547247
0.2731524249422632,0.3017740069417663,0.3923195448619176,0.7132477725922783,0.3416333523700743,0.3117638060272296,0.5096998162140085,0.3926116838487972,0.5641829865361077,0.5127142067440575,0.4402139461172741,0.4038349068426769
0.2783487297921478,0.306739298110297,0.3939789024534786,0.7081035214255409,0.3458595088520846,0.3162765794707052,0.5172554625280784,0.4010595647193585,0.5674724602203183,0.5126681407775936,0.4420760697305864,0.4073021973431364
0.2740184757505774,0.3009544928654069,0.3886452530520327,0.7133008061094611,0.3441462021701885,0.3100045892611289,0.5167449458852358,0.3897479954180984,0.5585985312117503,0.5056200479086052,0.4376386687797148,0.4028323168184476
0.2654157043879908,0.293578866178172,0.3881711508830153,0.721308867204073,0.3359223300970874,0.3039620621080006,0.5060240963855421,0.3694158075601375,0.5443696450428397,0.4972360420121614,0.4295562599049129,0.3947280474559278
0.2653002309468822,0.2926147319706903,0.3859191655801826,0.7218922358930844,0.3369503141062251,0.3025087960838305,0.5075556463140698,0.3662657502863688,0.5393206854345165,0.4945642159572508,0.4251584786053883,0.3907594619433536
0.2691685912240185,0.2943501735441574,0.3823633993125518,0.7191344929995758,0.3424328954882925,0.3026617714547958,0.5196038390851542,0.3801546391752577,0.5452111383108935,0.4972360420121614,0.4277733755942948,0.3932241624195839
0.2687644341801386,0.2933378326263016,0.3805855161787365,0.7199299957573186,0.3428897772701314,0.3013614808015909,0.5307331018991218,0.3917525773195876,0.5488066095471236,0.498157361341441,0.4291600633914421,0.3946444982872421
0.2598729792147806,0.2870709602776707,0.3835486547350954,0.7274607551972846,0.332609937178755,0.2973076334710112,0.5266489687563815,0.3790091638029782,0.5414626682986536,0.4930440390639396,0.4236925515055468,0.3896315481660957
0.2487875288683603,0.276947551099113,0.3812966694322627,0.7381204921510394,0.3227869788692177,0.2885115496405079,0.5162344292423933,0.356815578465063,0.5276927784577723,0.4848903629998158,0.4159270998415214,0.3815272788035759
0.2441685912240185,0.2756459699190127,0.3876970487139978,0.740931268561731,0.3151342090234152,0.2895823772372647,0.522564835613641,0.3629725085910652,0.527998776009792,0.4836926478717524,0.4131933438985737,0.378937254574317
0.2498267898383372,0.2841785576552256,0.3970605665520919,0.7336126431904963,0.3162764134780126,0.2993728009790423,0.5375740249132122,0.3855956471935853,0.5403151774785802,0.4891744978809655,0.4167591125198098,0.382571643412148
0.2523672055427252,0.292470111839568,0.4122318359606495,0.7278850233347476,0.3113649343232439,0.3108459538014379,0.5522769042270778,0.4086483390607102,0.5533200734394125,0.4950248756218906,0.4224643423137877,0.3873757206115799
0.2471131639722864,0.2906382568453529,0.4185136897001304,0.7313322019516334,0.3031410622501428,0.3113813675998164,0.549928527670002,0.4013459335624283,0.5517900856793145,0.4926294453657638,0.420324881141046,0.3856629626535216
0.2418591224018476,0.2834554569996143,0.4116392082493778,0.7376962240135766,0.301313535122787,0.3035031359951048,0.540739228098836,0.3916093928980526,0.5437576499388005,0.4888059701492538,0.4148177496038035,0.3820703484000334
0.2418591224018476,0.2819128422676437,0.4078463908972383,0.7385447602885024,0.3031410622501428,0.3010555300596604,0.5419644680416581,0.3964776632302405,0.5458231334149326,0.4908328726736687,0.4157290015847861,0.3830311638399198
0.2480369515011547,0.2854319321249517,0.4039350480028446,0.733771743742045,0.3111364934323244,0.3025852837693131,0.5558505207269757,0.4198167239404353,0.5591340269277846,0.4971439100792335,0.4221473851030111,0.3875428189489515
0.2520785219399538,0.2889510219822599,0.4041720990873533,0.7299533305048791,0.3150199885779555,0.3054918158176533,0.5695323667551562,0.4367124856815578,0.5679314565483476,0.5008291873963516,0.4248811410459588,0.3908430111120394
0.2494226327944573,0.2867817200154261,0.4042906246296077,0.7323928722952905,0.3122786978869218,0.3038090867370353,0.5648356136410047,0.4306987399770905,0.5641829865361077,0.4985258890731528,0.4230586370839936,0.3888378310635809
0.2483833718244804,0.2830215966062476,0.3971790920943463,0.7349384811200679,0.314791547687036,0.2984549487532507,0.5471717377986522,0.4083619702176402,0.5510250917992656,0.4924451814999079,0.4167987321711569,0.3824463196591193
0.2519630484988452,0.2851426918627073,0.3950456323337679,0.7321277047093763,0.3193603655054255,0.2995257763500076,0.5452317745558505,0.4046391752577319,0.549954100367197,0.4918002579694122,0.4157686212361331,0.3811930821288328
0.2572170900692841,0.2937716930196684,0.4054758800521512,0.7249681798896902,0.3194745859508852,0.3096986385191984,0.5603430671839902,0.4238258877434134,0.5608935128518971,0.4973742399115533,0.4211568938193344,0.3855794134848358
0.2560623556581987,0.3005206324720401,0.4244399668128482,0.7217861688587187,0.3091947458595089,0.3211717913415939,0.5783132530120482,0.4414375715922107,0.5706854345165239,0.5015662428597752,0.426188589540412,0.3915531790458684
0.2478060046189377,0.2954107211723872,0.4288254118762593,0.7283623249893932,0.2989149057681325,0.3185712100351843,0.5797426996120073,0.4397193585337914,0.570532435740514,0.5012898470609913,0.4253961965134707,0.3918456011362686
0.2424364896073903,0.291891631315079,0.4311959227213464,0.7328171404327535,0.2924043403769275,0.3165060425271531,0.5699407800694303,0.4239690721649484,0.5626529987760098,0.4978809655426571,0.4210380348652932,0.3880858885454089
0.2459584295612009,0.2957963748553799,0.4335664335664335,0.7289987271955876,0.294802969731582,0.320330426801285,0.5656524402695527,0.4215349369988544,0.559516523867809,0.4965450525152018,0.4206418383518225,0.3876681427019801
0.2534642032332563,0.3021114539143849,0.4336849591086879,0.7221043699618158,0.3022272986864649,0.3254551017286217,0.5762711864406779,0.4414375715922107,0.5694614443084455,0.5027639579878387,0.4258320126782884,0.3935165845099841
0.2580831408775981,0.3070767450829155,0.4364110465805381,0.7172783198981756,0.3054254711593376,0.3301973382285452,0.5883193792117623,0.4627720504009163,0.58093635250918,0.5109637000184264,0.4321711568938193,0.4004511655109032
0.2548498845265589,0.3054377169301966,0.4390186085101339,0.7196648281714043,0.3009708737864078,0.3297384121156494,0.5800490095977129,0.4516036655211912,0.577952876376989,0.5093513911921873,0.4324088748019017,0.3996992229927312
0.2492494226327945,0.3013883532587736,0.4405594405594405,0.7244378447178617,0.2946887492861222,0.327061343123757,0.563712477026751,0.424971363115693,0.5633414932680538,0.5023032983231989,0.4280110935023772,0.3952293424680425
0.2509815242494226,0.3023042807558812,0.4392556595946426,0.723165040305473,0.2970873786407767,0.3273672938656876,0.5626914437410659,0.4258304696449026,0.5621940024479803,0.503961673115902,0.4284072900158479,0.3963154816609575
0.2631062355658199,0.3110296953335904,0.4358184188692663,0.7127704709376326,0.3106796116504855,0.333180357962368,0.5807637328976925,0.4513172966781214,0.5748929008567931,0.5122074811129538,0.4356180665610142,0.4037931322583341
0.268013856812933,0.3188873891245661,0.445063411165106,0.7061943148069579,0.3110222729868647,0.3424353679057672,0.590667755768838,0.4593356242840778,0.5818543451652387,0.5181039248203427,0.441283676703645,0.4103935165845099
0.2618360277136259,0.3160913999228693,0.4507526371933151,0.7105960967331353,0.3022272986864649,0.3419764417928713,0.5817847661833775,0.4443012600229094,0.5732864137086903,0.5127142067440575,0.4380348652931854,0.4075946194335366
0.2573325635103926,0.3106922483609718,0.4468412942989214,0.7155812473483241,0.2997144488863507,0.3364693284381214,0.5628956503982029,0.4096506300114547,0.5559975520195839,0.5025796941219827,0.4310618066561015,0.4002840671735316
0.2575057736720554,0.3138256845352873,0.4541898779186915,0.7138311412812897,0.2962878355225585,0.3412880526235276,0.5606493771696958,0.3914662084765177,0.5486536107711137,0.5012437810945274,0.4291600633914421,0.3989472804745592
0.2654157043879908,0.3207674508291555,0.455019556714472,0.7063534153585066,0.3037121644774415,0.347101116720208,0.5733101899121911,0.4093642611683848,0.5570685434516524,0.508061544131196,0.4341521394611728,0.4037513576739911
0.2719399538106236,0.3266968762051678,0.4562048121370155,0.7000954603309292,0.3095374071958881,0.3521493039620621,0.581682662854809,0.4175257731958763,0.5618115055079559,0.509812050856827,0.4370839936608558,0.4066338039936502
0.2669745958429562,0.321683378326263,0.4540713523764371,0.7051336444633007,0.3057681324957167,0.3474835551476212,0.5695323667551562,0.3890320733104238,0.5460526315789473,0.5010595172286715,0.4312599049128368,0.400158743420503
0.2581986143187067,0.311945622830698,0.4481450752637193,0.714520577004667,0.2999428897772702,0.3378461067768089,0.5552379007555646,0.3586769759450172,0.5283812729498164,0.4894048277132855,0.422662440570523,0.3918873757206116
0.2605080831408776,0.309053220208253,0.4362925210382837,0.7150509121764955,0.3079383209594518,0.3318035796236805,0.554931590769859,0.3593928980526918,0.5254742962056304,0.4877925188870463,0.4219492868462757,0.391344306124154
0.2690531177829099,0.3112225221750868,0.424084390186085,0.709959694526941,0.322215876641919,0.3295089490592015,0.5787216663263222,0.390893470790378,0.5403151774785802,0.4985258890731528,0.4297147385103011,0.3993650263179881
0.2709006928406466,0.3059679907443116,0.4073722887282209,0.7119749681798896,0.3320388349514563,0.3200244760593544,0.599244435368593,0.4166666666666667,0.550719094247246,0.5055739819421412,0.4358557844690967,0.4054223410477066
0.2651847575057737,0.3008580794446587,0.4065426099324404,0.7173843869325414,0.3268989149057681,0.3156646779868441,0.5926077190116398,0.4000572737686139,0.5414626682986536,0.4977427676432652,0.4300713153724247,0.4003258417578745
0.2592956120092379,0.2982549170844581,0.4122318359606495,0.7215740347899873,0.3182181610508282,0.3154352149303962,0.581274249540535,0.3764318442153493,0.5259332925336597,0.486502671826055,0.4208399366085578,0.391344306124154
0.2604503464203234,0.3005206324720401,0.4153135000592627,0.7197708952057701,0.3178754997144489,0.3182652592932538,0.5836226260976107,0.3800114547537228,0.5273102815177478,0.4873779251888704,0.4202456418383518,0.3902999415155819
0.2707852193995381,0.3066910913999228,0.4093872229465449,0.7116037335596096,0.3310108509423187,0.3212482790270767,0.6085358382683275,0.4120847651775486,0.5464351285189718,0.498019163442049,0.4272583201267829,0.3974016208538725
0.2760392609699769,0.3082819128422676,0.4026312670380467,0.7083686890114552,0.3394631639063392,0.320330426801285,0.6294670206248724,0.4387170675830469,0.5594400244798041,0.5044683987470058,0.4318541996830428,0.401620853872504
0.2689376443418014,0.3022560740455071,0.4022756904112837,0.714891811624947,0.332609937178755,0.3153587272449135,0.635593220338983,0.4289805269186713,0.5527080783353733,0.4985719550396167,0.4272187004754358,0.3970674241791294
0.2580831408775981,0.295314307751639,0.4074908142704753,0.7237484089944844,0.3193603655054255,0.3116108306562642,0.6350827036961404,0.3991981672394043,0.538173194614443,0.4877925188870463,0.4190174326465927,0.389172027738324
0.2549076212471132,0.2957481681450058,0.4151949745170084,0.7249681798896902,0.3125071387778413,0.3144408750191219,0.6419236267102307,0.3890320733104238,0.5341952264381885,0.4854431545973835,0.4171156893819334,0.3883365360514663
0.2580254041570439,0.3016775935210181,0.4232547113903046,0.7202481968604157,0.3117075956596231,0.3217072051399724,0.6619358791096589,0.4043528064146621,0.5436046511627907,0.4919845218352681,0.4210380348652932,0.3930152894978694
0.2534064665127021,0.3031720015426147,0.4364110465805381,0.7215210012728044,0.3008566533409481,0.3271378308092396,0.6838880947518888,0.3970504009163803,0.5426866585067319,0.4913395983047725,0.4217115689381934,0.392430445317069
0.2427251732101617,0.2967123023524874,0.4423373236932559,0.7300063640220619,0.287378640776699,0.3239253480189689,0.6850112313661425,0.3606815578465062,0.5269277845777234,0.4809286898839138,0.4161251980982567,0.3866237780934079
0.2393764434180139,0.2939163131507906,0.4424558492355103,0.7330823080186678,0.2840662478583667,0.3217072051399724,0.6693894220951603,0.311139747995418,0.5056609547123623,0.468905472636816,0.4089540412044374,0.3793967750020887
0.2441108545034642,0.2972907828769764,0.441033542728458,0.7290517607127704,0.2894346087949743,0.3240018357044515,0.6591790892383091,0.2946735395189003,0.5007649938800489,0.4673852957435047,0.4087955625990492,0.3791043529116885
0.2551385681293303,0.3090050134978789,0.4471968709256845,0.7175434874840899,0.2973158195316962,0.3352455254703992,0.6463140698386767,0.3082760595647193,0.5105569155446756,0.476736686935692,0.4155705229793978,0.3866237780934079
0.2665704387990762,0.3157057462398766,0.4400853383904231,0.7085808230801867,0.3120502569960023,0.3383050328897047,0.6142536246681641,0.3069873997709049,0.5136933904528763,0.4812972176156256,0.4196513470681458,0.3914278552928398
0.2706120092378753,0.3139220979560355,0.4275216309114614,0.7077322868052608,0.3221016561964592,0.3327979195349549,0.5626914437410659,0.2876575028636884,0.5025244798041616,0.4766906209692279,0.4180665610142631,0.3902163923468961
0.2692263279445728,0.3037504820671037,0.4054758800521512,0.7139902418328383,0.3313535122786979,0.31757687012391,0.5106187461711251,0.2650343642611684,0.4840116279069767,0.4674774276764327,0.4118858954041205,0.3831147130086055
0.2738452655889146,0.29815850366371,0.3821263482280432,0.714891811624947,0.3472301541976014,0.3056447911886186,0.5015315499285276,0.2789232531500573,0.4844706242350061,0.4666021743136171,0.4102218700475436,0.3807335617010611
0.2841801385681293,0.2967123023524874,0.3574730354391371,0.7109673313534153,0.3692747001713307,0.2965427566161848,0.5233816622421891,0.3198739977090492,0.4986995104039167,0.4742951907131011,0.4152535657686212,0.3866237780934079
0.2846997690531178,0.2925665252603162,0.3459760578404646,0.712982605006364,0.3753283837806968,0.2895823772372647,0.5378803348989177,0.3442153493699885,0.5081854345165239,0.4797770407223144,0.4198098256735341,0.3912607569554682
0.281986143187067,0.2886617817200154,0.3419461894038165,0.716376750106067,0.3746430611079384,0.2851460914792718,0.5257300387992648,0.3304696449026346,0.4993880048959608,0.4748479823106689,0.4171156893819334,0.3886289581418665
0.2785219399538106,0.2840821442344775,0.3379163209671684,0.7205133644463301,0.373043974871502,0.2802508796083831,0.5066367163569532,0.3092783505154639,0.4864596083231334,0.4677077575087526,0.4115293185419968,0.3828222909182053
0.2808314087759815,0.2857693790975704,0.3373236932558966,0.7185511243105642,0.375671045117076,0.2813981948906226,0.5073514396569329,0.3137170675830469,0.4876070991432069,0.4682144831398563,0.4105784469096672,0.3824880942434623
0.2877598152424943,0.290156189741612,0.3338864525305203,0.7129295714891811,0.3841233580810966,0.2836928254551017,0.5234837655707575,0.3382016036655211,0.495563035495716,0.4741569928137092,0.4143819334389857,0.3869579747681511
0.2889145496535797,0.2917470111839568,0.3354272845798269,0.7114976665252439,0.3845802398629355,0.285528529906685,0.531754135184807,0.347508591065292,0.499235006119951,0.4777040722314355,0.4170364500792393,0.3900075194251817
0.2811778290993072,0.2888546085615118,0.3441981747066493,0.7166949512091642,0.3727013135351228,0.2860639437050635,0.5253216254849908,0.331758304696449,0.4915085679314565,0.4730974755850378,0.4141838351822504,0.3878352410393517
0.2749422632794457,0.284998071731585,0.3475168898897712,0.7216270683071702,0.3649343232438607,0.2840752638825149,0.5084745762711864,0.2989690721649484,0.47421970624235,0.462824765063571,0.4068541996830428,0.3804411396106609
0.2768475750577367,0.2853355187042036,0.344435225791158,0.7206194314806957,0.3682467161621931,0.2833103870276885,0.5069430263426588,0.29524627720504,0.4704712362301101,0.4614888520361157,0.4061806656101426,0.3786030578995739
0.2844688221709007,0.2876012340917856,0.3343605546995377,0.7158464149342384,0.3806967447173044,0.2818571210035184,0.5236879722278945,0.3211626575028637,0.4848531211750306,0.4700571217984153,0.4130744849445324,0.3850363438883782
0.2872979214780601,0.2862996529116853,0.3253526134882067,0.715263046245227,0.3877784123358082,0.2779562490439039,0.5330814784561977,0.3341924398625429,0.4917380660954712,0.474433388612493,0.4156497622820919,0.3883783106358091
0.2848729792147806,0.2819610489780177,0.3196633874599976,0.7187632583792957,0.3882352941176471,0.2726785987456019,0.5241984888707372,0.315864833906071,0.4822521419828641,0.4678920213746084,0.4107765451664025,0.3842426267858634
0.2803695150115474,0.2791168530659468,0.3219153727628303,0.722422571064913,0.38263849229012,0.2710723573504666,0.5061261997141107,0.2906643757159221,0.4671052631578947,0.4594158835452367,0.4038431061806656,0.3777675662127162
0.2820438799076213,0.2834554569996143,0.3291454308403461,0.7192405600339413,0.3808109651627642,0.276885421447147,0.5053093730855626,0.2827892325315005,0.4635097919216646,0.4573889810208218,0.4020602218700476,0.3770156236945442
0.289838337182448,0.2911685306594678,0.3321085693967049,0.7113915994908783,0.3870930896630497,0.2839222885115496,0.523585868899326,0.3065578465063001,0.474984700122399,0.4654044591855538,0.4087955625990492,0.3835742334363773
0.291512702078522,0.2931450057848052,0.3334123503615029,0.7095354263894781,0.3881210736721873,0.2859109683340982,0.5383908515417603,0.3283218785796105,0.484547123623011,0.4717154965911185,0.4134706814580032,0.3884200852201521
0.2833140877598152,0.2890956421133822,0.3404053573545098,0.7155812473483241,0.3766990291262136,0.2849931161083066,0.5308352052276903,0.3150057273768614,0.476438188494492,0.4664179104477612,0.40986529318542,0.385871835575236
0.2769630484988453,0.283841110682607,0.3405238828967642,0.7213619007212557,0.3703026841804683,0.2808627810922441,0.5182764958137634,0.2928121420389461,0.4649632802937576,0.4585406301824212,0.4036846275752773,0.3797727462611747
0.2796189376443418,0.2873602005399151,0.3437240725376318,0.7181798896902842,0.3714448886350657,0.284687165366376,0.5197059424137227,0.2943871706758305,0.4650397796817626,0.4588170259812051,0.4029318541996831,0.3786030578995739
0.2876443418013857,0.2931450057848052,0.3414720872347991,0.7113385659736953,0.3803540833809252,0.2885115496405079,0.5348172350418623,0.315864833906071,0.4749082007343941,0.4665100423806892,0.4090332805071315,0.3844932742919208
0.2891454965357968,0.29473582722715,0.3423017660305796,0.7097475604582096,0.3814962878355226,0.2901177910356432,0.5470696344700837,0.333906071019473,0.4840881272949816,0.4723143541551502,0.4146196513470682,0.3906759127746679
0.2853926096997691,0.2923736984188199,0.3441981747066493,0.7127704709376326,0.3769274700171331,0.2888175003824384,0.5395139881560138,0.3203035509736541,0.4788861689106487,0.468629076838032,0.4119651347068146,0.3882529868827805
0.2816397228637414,0.2853837254145777,0.3347161313263008,0.7183920237590157,0.3777270131353513,0.2802508796083831,0.5240963855421686,0.2925257731958763,0.4653457772337821,0.4596462133775567,0.4048732171156894,0.3817361517252903
0.2863163972286374,0.2807558812186656,0.3137371103472798,0.7187632583792957,0.3924614505996573,0.2697720666972617,0.5249132121707167,0.2948167239404353,0.4662637698898408,0.4592316196793809,0.40459587955626,0.3819450246470047
0.2966512702078522,0.2861550327805631,0.3056773734739836,0.711073398387781,0.4065105653912051,0.2714547957778797,0.5375740249132122,0.3145761741122566,0.4775091799265606,0.4678459554081445,0.4106180665610143,0.3890884785696382
0.3014434180138568,0.2920844581565754,0.3106554462486666,0.7056109461179465,0.4089091947458595,0.277726785987456,0.5395139881560138,0.3194444444444444,0.4794981640146878,0.4696885940667035,0.4118462757527734,0.3904670398529535
0.2989607390300231,0.2854801388353259,0.2993955197345027,0.7103839626644038,0.4118789263278127,0.2689307021569527,0.5270573820706554,0.3011168384879725,0.4715422276621787,0.4638842822922425,0.4080824088748019,0.3869162001838081
0.2866628175519631,0.2763208638642499,0.3021216072063529,0.7210436996181586,0.3984009137635637,0.2625057365764112,0.510210332856851,0.2654639175257732,0.4540238678090575,0.4527823843744242,0.3990491283676703,0.378185312056145
0.2812933025404157,0.2750674893945237,0.3100628185373948,0.7241726771319473,0.3892632781267848,0.2641119779715465,0.513988156013886,0.2600229095074455,0.4510403916768666,0.4514004053805049,0.3971473851030111,0.3750104436460857
0.2889145496535797,0.2820574623987659,0.3116036505867015,0.7168540517607127,0.396116504854369,0.2701545051246749,0.5290994486420257,0.2853665521191294,0.4628212974296205,0.4602450709415884,0.4035261489698891,0.3809424346227755
0.2922632794457275,0.2867335133050521,0.3162261467346213,0.7127704709376326,0.3971444888635066,0.2753556677374942,0.5364508882989585,0.3008304696449026,0.4696297429620563,0.4661415146489773,0.4076862123613313,0.3853705405631214
0.2852771362586605,0.2848052448900887,0.3258267156572241,0.7170131523122614,0.3856082238720731,0.276885421447147,0.5200122523994282,0.2764891179839633,0.4583843329253366,0.4594158835452367,0.4032884310618067,0.3809006600384326
0.280715935334873,0.2799363671423062,0.3232191537276283,0.7217861688587187,0.3824100513992005,0.2721431849472235,0.5055135797426995,0.2547250859106529,0.4465269277845777,0.4519531969780726,0.398256735340729,0.3755952878268861
0.284526558891455,0.27868299267258,0.3123148038402276,0.7207254985150614,0.3914334665905198,0.2676304115037479,0.5089850929140289,0.2573024054982817,0.4480569155446756,0.4527823843744242,0.398256735340729,0.3757623861642576
0.2939953810623557,0.2843713844967219,0.3068626288965272,0.7132477725922783,0.4033123929183325,0.2704604558666055,0.5297120686134368,0.2827892325315005,0.4626682986536107,0.4614427860696518,0.4052694136291601,0.3824463196591193
0.2995381062355658,0.2895295025067489,0.3081664098613251,0.7078913873568095,0.4082238720731011,0.274973229310081,0.5435981212987543,0.2982531500572737,0.4736077111383109,0.4683987470057122,0.4106576862123613,0.3875010443646085
0.2924364896073903,0.2871673736984188,0.3169372999881474,0.7124522698345354,0.3970302684180469,0.2758910815358727,0.5361445783132529,0.2804982817869416,0.4651162790697674,0.4626865671641791,0.4059429477020602,0.3826134179964909
0.2871247113163973,0.2856247589664481,0.3240488325234088,0.7156873143826898,0.3882352941176471,0.2769619091326296,0.5207269756994077,0.2514318442153493,0.4506578947368421,0.4529205822738161,0.3987321711568938,0.3748015707243713
0.2901847575057737,0.2894330890860008,0.3272490221642763,0.712187102248621,0.3898343803540834,0.2810157564632094,0.518378599142332,0.2448453608247422,0.4472919216646266,0.4520913948774646,0.3987717908082409,0.3750104436460857
0.2949191685912241,0.2928557655225607,0.3258267156572241,0.7081565549427238,0.3950885208452314,0.2833103870276885,0.5330814784561977,0.2701890034364261,0.4603733170134639,0.460889994472084,0.4057448494453249,0.382571643412148
0.2960161662817552,0.2939163131507906,0.3260637667417328,0.7070428510818837,0.396116504854369,0.2842282392534802,0.5425770880130693,0.2847938144329896,0.4673347613219094,0.4654505251520177,0.4104992076069731,0.3869579747681511
0.2881639722863742,0.2879386810644042,0.3274860732487851,0.7139372083156554,0.3876641918903484,0.2799449288664525,0.531754135184807,0.2623138602520046,0.4552478580171358,0.4581260364842455,0.4049128367670365,0.3810259837914613
0.2777136258660508,0.2814307751639028,0.3330567737347398,0.7223165040305473,0.3746430611079384,0.2765794707052165,0.5103124361854195,0.2259450171821305,0.4380354957160343,0.4465634789017874,0.3960380348652932,0.3720026735733979
0.2752309468822171,0.2810933281912842,0.3372051677136423,0.7236423419601188,0.3701884637350086,0.2775738106164908,0.5122523994282213,0.2233676975945017,0.4358170134638923,0.4451814999078681,0.3951267828843106,0.3707494360431114
0.2801385681293303,0.2823467026610104,0.3303306862628897,0.7207254985150614,0.3784123358081097,0.2764264953342512,0.532162548499081,0.2528636884306987,0.4484394124847001,0.4536115717707757,0.4017828843106181,0.3767649761884868
0.2800230946882217,0.2797435403008099,0.3241673580656631,0.7222104369961815,0.3811536264991434,0.2723726480036714,0.5468654278129467,0.2727663230240549,0.4575428396572827,0.4593237516123089,0.4055467511885895,0.3795220987551173
0.2752886836027714,0.2726571538758195,0.3165817233613843,0.7282562579550275,0.3801256424900058,0.2642649533425119,0.5399224014702879,0.2637457044673539,0.4508108935128518,0.4544868251335913,0.4026941362916006,0.3756788369955719
