Lead I,Lead II,Lead III,aVR,aVL,aVF,V1,V2,V3,V4,V5,V6
0.1343740737081316,0.5995338489246742,0.8139587753864809,0.6277253498210218,0.1228070175438596,0.7522812111157196,0.7799623706491062,0.4503307963985475,0.3022450329040587,0.1975084432549544,0.1309354379609264,0.1329187244680202
0.1234067779863649,0.591588091958894,0.8166110942709913,0.6379216834797701,0.1159014557670772,0.7502073828287018,0.7532455315145814,0.4373476595533005,0.2959476054031928,0.192155738227235,0.1241644024668995,0.1267605633802817
0.1299278727398478,0.6052547939400359,0.8213852682631101,0.6272914632823516,0.1160880925718552,0.7601617586063875,0.7346190028222013,0.4362035517087002,0.2958531439906798,0.1919645701905308,0.1256307413636951,0.1290165233827205
0.1503803971939531,0.6297277253946392,0.8232040012124887,0.6035361752901616,0.1245800671892497,0.7734342596433016,0.7317027281279398,0.4409789583644232,0.2997260619037123,0.1962658510163767,0.1329624358476732,0.1390768855557588
0.1553206204920462,0.6378853692128403,0.8252500757805397,0.5967024623061069,0.1256998880179171,0.7788262131895479,0.7275634995296331,0.4415758841963886,0.3001039075537643,0.1969030778053909,0.1348600508905852,0.1422474239375648
0.147613872147021,0.6329060281809513,0.8275992725068203,0.6034277036554941,0.1206606942889138,0.7779966818747407,0.7105362182502352,0.4341143112968214,0.2957586825781668,0.1939399732364748,0.131452969336266,0.1368818974452777
0.1413891907914237,0.6287742345587455,0.8294180054561989,0.6089597570235383,0.1165546845837999,0.7771671505599337,0.6881467544684854,0.4241158036114013,0.291287509052552,0.1906901166125024,0.127183335489714,0.1309066520334126
0.1466258274874024,0.6377794257866298,0.831842982722037,0.6014752142314784,0.1175811870100784,0.7831812525922854,0.6811853245531514,0.4213798935482266,0.2910356119525174,0.1910724526859109,0.1283477810842282,0.1326138650082312
0.1593716035964825,0.6512342409153511,0.8316156411033648,0.587590844994034,0.1236468831653602,0.7897138116963915,0.6963311382878645,0.4282445406158285,0.2944677099404893,0.195246288153954,0.1339543709837409,0.1398085482592524
0.1571979053453216,0.6460430130310413,0.8296453470748711,0.5913873522073978,0.1238335199701381,0.7857735379510576,0.7035747883349012,0.4312789135949859,0.2953178626531063,0.196233989676926,0.1357657307974296,0.1427351990732272
0.1413891907914237,0.6315287636402159,0.8313882994846924,0.6075496257728604,0.1153415453527435,0.7798631273330568,0.6935089369708373,0.4230214395861314,0.2905633048899525,0.1903077805390938,0.1280458877819468,0.1335894152795561
0.135460922833712,0.6230532895433838,0.8298726886935435,0.6151426401995878,0.1134751773049645,0.7746785566155123,0.6821260583254939,0.4156096105058946,0.2854623886142511,0.1848276301535716,0.1215336179755897,0.1243216877019694
0.1429700622468135,0.6258078186248544,0.8260836617156715,0.6096105868315436,0.1193542366554684,0.7734342596433016,0.6869238005644402,0.4182460329304084,0.2868163355269372,0.1847639074746702,0.1213179799025316,0.124443631485885
0.1517636597174192,0.636508104672105,0.8269930281903607,0.5993057815381279,0.1229003359462486,0.7793446702613024,0.7010348071495767,0.424861960901358,0.2908152019899871,0.1887147135665583,0.1261914003536464,0.1319431741966953
0.153344531172809,0.6369318783769466,0.8260836617156715,0.5982210651914525,0.1242067935796939,0.7789299046038988,0.7061147695202258,0.4264040193006019,0.2910985862275261,0.1899254444656853,0.1274421011773839,0.1339552466313029
0.1400059282679577,0.623371119822015,0.8266141254925736,0.6124308493328995,0.1176745054124673,0.7726047283284944,0.7010348071495767,0.4221260508381834,0.2882647438521364,0.1871535079334735,0.1237331263207832,0.1268825071641973
0.1313111352633139,0.61680262739697,0.828584419521067,0.6205662219329646,0.1123553564762971,0.7707382828701784,0.6964252116650987,0.4187932149430433,0.2860606442268333,0.1840629580067546,0.1194203648596196,0.1202365709407963
0.1381286434146823,0.6263375357559063,0.8301758108517733,0.6119969627942292,0.1145949981336319,0.7765450020738284,0.7057384760112888,0.422424513754166,0.2883277181271451,0.1865800038233607,0.1227411911847155,0.1245655752698006
0.1502815927279913,0.6403220680156796,0.8307820551682329,0.5981125935567849,0.1199141470698021,0.7836997096640399,0.725211665098777,0.4328707158135602,0.29396391574042,0.1925380743006436,0.1300728856686936,0.1337113590634717
0.1515660507854955,0.6411696154253628,0.8304031524704456,0.5970278772101096,0.1207540126913027,0.7839070924927417,0.738381937911571,0.4421230662090235,0.2992537548411474,0.1968393551264895,0.1358951136412645,0.1397475763672947
0.1423772354510424,0.6254899883462229,0.8263867838739012,0.6100444733702136,0.1188876446435237,0.7734342596433016,0.7360301034807148,0.4400835696164752,0.2992537548411474,0.1957242082457146,0.1337818605252943,0.1354185720382903
0.1320027665250469,0.6076914927428752,0.8215368293422249,0.6249050873196659,0.1170212765957447,0.7614060555785982,0.7367826904985889,0.4364522708053525,0.297112629490853,0.1934301918052635,0.1282183982403933,0.1279800012194378
0.1396107104041102,0.6091747007098208,0.8167626553501061,0.6200238637596268,0.1234602463605823,0.7589174616341768,0.7561618062088429,0.4438640998855892,0.3013948801914418,0.196233989676926,0.1309354379609264,0.1315773428449484
0.1570991008793597,0.6143659285941306,0.8070627462867536,0.6076580974075279,0.1377379619260918,0.7547698050601411,0.7746942615239886,0.4571954434661493,0.3083220504423943,0.2027018415854202,0.1398197265709233,0.142491311505396
0.1592727991305207,0.6087509270049792,0.801454986359503,0.6093936435622085,0.1422172452407615,0.7482372459560349,0.788428974600188,0.4627667512311595,0.3121634812179225,0.2064296183011534,0.1438305947298055,0.1473080909700628
0.1468234364193261,0.5939188473355227,0.8003182782661413,0.6238203709729906,0.1370847331093692,0.7401493156366653,0.7886171213546566,0.4581405760334278,0.3087313832299506,0.2025425348881667,0.1392159399663604,0.1404792390707883
0.1352633139017883,0.5884097891725818,0.805244013337375,0.633040459919731,0.1284994400895857,0.7408751555371216,0.7731890874882409,0.4488882256379645,0.3030007242041626,0.1963932963741795,0.1322292663992754,0.1318822023047375
0.13694298982314,0.5985803580887805,0.8113064565019703,0.6268575767436815,0.1256065696155282,0.75,0.7727187206020697,0.4502313087598866,0.3037879026417709,0.1969349391448416,0.1340837538275758,0.1331016401438936
0.1500839837960675,0.6124589469223434,0.8110791148832981,0.6125393209675669,0.1319522209779768,0.7566362505184571,0.7788334901222953,0.4564492861761926,0.3083220504423943,0.2014911106862932,0.1404235131754862,0.1420035363697335
0.1500839837960675,0.6120351732175017,0.8107759927250683,0.612756264236902,0.1321388577827547,0.7562214848610536,0.769802445907808,0.4527682435457394,0.3056141566170219,0.2012680813101383,0.1407685340923793,0.1434668617767209
0.1332872245825511,0.5969912066956244,0.8128978478326766,0.6296778392450374,0.1229003359462486,0.7503110742430527,0.7404515522107242,0.4400338257971447,0.2982776535785131,0.1949595360988976,0.1325742873161685,0.1347478812267545
0.1280505878865724,0.5904227142705795,0.8122158229766596,0.6358607224210869,0.1208473310936917,0.7466818747407715,0.7174976481655692,0.4302342933890464,0.291759816115117,0.1889058816032626,0.124466295769181,0.1274922260837754
0.1382274478806442,0.6052547939400359,0.815019702940285,0.6227356546263152,0.123926838372527,0.75580671920365,0.7064910630291628,0.4263542754812714,0.2895557164898139,0.1876632893646848,0.1243800405399577,0.129199439058594
0.1475150676810591,0.6246424409365399,0.8217641709608973,0.6077665690421955,0.1241134751773049,0.7699087515553712,0.7067732831608654,0.42729940804855,0.291665354702604,0.1904670872363474,0.1295984819079657,0.1357844033900372
0.1495899614662582,0.6346011230003178,0.8272961503485905,0.6014752142314784,0.1216871967151922,0.7786188303608461,0.702351834430856,0.4290404417251157,0.2938379671904028,0.1932071624291085,0.1330055634622849,0.1404792390707883
0.1429700622468135,0.6273969700180103,0.8272961503485905,0.6088512853888708,0.1186076894363568,0.7750933222729159,0.6911571025399812,0.424314778888723,0.2908152019899871,0.1904352258968967,0.1279165049381118,0.1335894152795561
0.1355597272996739,0.6219938552812797,0.8289633222188543,0.6156849983729255,0.1140350877192982,0.7735379510576524,0.6797742238946377,0.4171019250858081,0.2859976699518247,0.1855923023003887,0.121619873204813,0.1254801536491677
0.1355597272996739,0.6298336688208497,0.8346468626856623,0.6115630762555592,0.110582306830907,0.7813148071339693,0.6827845719661335,0.4152614037705815,0.2850845429641991,0.1854011342636844,0.1223099150385992,0.1250533504054631
0.1455389783618219,0.6419112194088357,0.835632009699909,0.599956611346133,0.1146883165360209,0.7878473662380756,0.6934148635936029,0.4193403969556782,0.2887685380522056,0.1898935831262346,0.1274852287919955,0.1315773428449484
0.1463294140895168,0.642017162835046,0.835101545923007,0.5994142531727953,0.1153415453527435,0.7875362919950227,0.6985888993414864,0.4213798935482266,0.2904058692024308,0.191391066080418,0.1297709923664122,0.1339552466313029
0.1348680960379409,0.6285623477063248,0.8342679599878752,0.6126477926022346,0.1104889884285181,0.7803815844048113,0.6874882408278457,0.4150126846739292,0.286312541326868,0.187312814630727,0.1245956786130159,0.1268215352722395
0.1286434146823436,0.6202987604619133,0.8331312518945135,0.6202408070289619,0.1082493467711833,0.7756117793446703,0.677516462841016,0.409988558921554,0.2827544947888787,0.1838080672911489,0.1198947686203476,0.1209072617523321
0.1379310344827586,0.6300455556732703,0.8329796908153987,0.6101529450048813,0.1127286300858529,0.7802778929904605,0.6843838193791157,0.4147142217579466,0.2844862873516169,0.1855285796214873,0.1231724673308319,0.1258459850009145
0.1482066989427922,0.6402161245894691,0.8323734464989392,0.5993057815381279,0.1179544606196342,0.7848403152218996,0.7017873941674505,0.4230711834054619,0.2905318177524481,0.1906582552730517,0.1299866304394704,0.134564965550881
0.1417844086552712,0.6281385740014832,0.8286602000606245,0.6090682286582059,0.1172079134005226,0.7763376192451266,0.71862652869238,0.4279460776998458,0.2928933530652728,0.1915503727776716,0.1314098417216544,0.1360282909578684
0.1257780851694496,0.6049369636614047,0.8242649287662929,0.629786310879705,0.1123553564762971,0.7619245126503527,0.715898400752587,0.4228722081281401,0.2883592052646494,0.1865162811444593,0.1245094233837926,0.1265776477044083
0.1185653591542337,0.5988981883674117,0.8255531979387695,0.6367284954984272,0.1081560283687943,0.7599543757776857,0.706961429915334,0.4189424464010346,0.2853364400642337,0.1833620085388389,0.1194634924742312,0.1185903298579355
0.1300266772058096,0.6156372497086555,0.8286602000606245,0.6219763531836424,0.1116088092571855,0.770219825798424,0.7151458137347131,0.4256081181913147,0.2885481280896754,0.1867711718600649,0.1229137016431621,0.1232851655386866
0.1453413694298982,0.62993961224706,0.827220369809033,0.6062479661568501,0.1198208286674132,0.7762339278307756,0.7358419567262465,0.4378948415659354,0.2958216568531754,0.1930478557318549,0.131927373096994,0.1355405158222059
0.148305503408754,0.6287742345587455,0.8241133676871779,0.6051632498101747,0.1230869727510265,0.7735379510576524,0.746095954844779,0.4425210167636671,0.299883497591234,0.1971261071815459,0.1362832621727692,0.140601182854704
0.139808319336034,0.6177561182328635,0.822749317975144,0.6154680551035905,0.1199141470698021,0.767212774782248,0.739981185324553,0.4391881808685271,0.2981202178909915,0.1956286242273625,0.1327467977746151,0.1350527406865435
0.1363501630273688,0.6191333827735989,0.8263867838739012,0.6166612430849333,0.1160880925718552,0.7704272086271258,0.7396989651928504,0.438740486494553,0.2983721149910262,0.1949595360988976,0.1316254797947125,0.1303579050057923
0.1446497381681652,0.6316347070664264,0.8289633222188543,0.6057056079835124,0.1184210526315789,0.7782040647034425,0.7547507055503293,0.4462518032134507,0.3034100569917189,0.1994519849614477,0.1363263897873808,0.1364550942015731
0.1583835589368639,0.6442419747854644,0.827371930888148,0.5917127671114003,0.1257932064203061,0.7832849440066363,0.7761053621825024,0.4579416007561061,0.310305740105167,0.2061747275855477,0.1440893604174753,0.1479178098896409
0.1534433356387708,0.6361902743934738,0.8254774173992119,0.5985464800954551,0.1246733855916387,0.7781003732890917,0.7871119473189087,0.4626175197731682,0.3129191725180264,0.2068756770534633,0.1458144650019407,0.1492591915127126
0.135460922833712,0.6091747007098208,0.8198696574719612,0.622301768087645,0.1196341918626353,0.7609912899211946,0.7781749764816557,0.455155946873601,0.3075033848672818,0.200630854521124,0.1379221115280114,0.1390768855557588
0.1293350459440767,0.5906346011230003,0.8113822370415278,0.6351014209784142,0.1219671519223591,0.746163417669017,0.7642521166509877,0.4472466796000596,0.3018042129789981,0.1953737335117568,0.1304179065855867,0.1306627644655813
0.1408951684616144,0.5955079987286788,0.8060018187329494,0.6263152185703438,0.1307390817469205,0.7449191206968062,0.7573847601128881,0.4471969357807292,0.3015208287414591,0.1952781494934047,0.1317979902531591,0.1328577525760624
0.1531469222408852,0.6097044178408728,0.8067596241285238,0.612322377698232,0.1360582306830907,0.7523849025300705,0.7587017873941674,0.4509774660498433,0.3046065682168835,0.1999936277321098,0.1376633458403416,0.1425522833973538
0.1560122517537792,0.6126708337747642,0.8066838435889664,0.6091767002928734,0.137458006718925,0.7537328909166321,0.7474129821260583,0.4510272098691738,0.3060549765420826,0.202064614796406,0.1412429378531073,0.1473080909700628
0.150479201659915,0.6043013031041424,0.8049408911791452,0.6165527714502658,0.1359649122807017,0.7484446287847367,0.7177798682972718,0.4409292145450928,0.3013948801914418,0.1985598674568278,0.1383533876741277,0.1416377050179867
0.144748542634127,0.5969912066956244,0.8041073052440133,0.6233864844343204,0.1337252706233669,0.744296972210701,0.701975540921919,0.4316768641496294,0.2967977581158097,0.1942904479704326,0.1333937119937896,0.1351746844704591
0.1513684418535718,0.6069498887594024,0.8062291603516216,0.6147087536609177,0.135498320268757,0.7506221484861054,0.7061147695202258,0.4337661045615082,0.2980257564784785,0.1965207417319824,0.1353344546513132,0.1382232790683495
0.1638178045647663,0.6250662146413815,0.8095635040921492,0.5985464800954551,0.139324374766704,0.7618208212360016,0.713170272812794,0.4385912550365617,0.3007966245788595,0.1996112916587013,0.1412429378531073,0.1457837936711176
0.1639166090307282,0.6282445174276935,0.8116853591997576,0.5968109339407744,0.1381112355356476,0.7648278722521776,0.7107243650047036,0.4364522708053525,0.2997260619037123,0.1987510354935321,0.140337257946263,0.1463325406987379
0.1508744195237624,0.6110816823816082,0.8094119430130342,0.6128647358715695,0.1333519970138111,0.754873496474492,0.6938852304797741,0.4259065811072974,0.291665354702604,0.1916459567960237,0.1311942036485962,0.1360282909578684
0.1441557158383559,0.6065261150545607,0.8113822370415278,0.618830675778284,0.1289660321015304,0.7539402737453339,0.6828786453433677,0.4194398845943392,0.2880758210271104,0.187312814630727,0.1266658041143744,0.1308456801414547
0.1505780061258768,0.6152134760038138,0.8125947256744468,0.6109122464475539,0.1312989921612542,0.7590211530485276,0.6864534336782689,0.4199373227876436,0.2894612550773009,0.1884916841904033,0.1283909086988399,0.1341381623071764
0.1612488884497579,0.6236889501006462,0.810548651106396,0.6006074411541382,0.1375513251213139,0.7618208212360016,0.7037629350893696,0.429189673183107,0.2938379671904028,0.1928885490346014,0.1342562642860223,0.1406621547466618
0.1601620393241774,0.6177561182328635,0.807138526826311,0.6042954767328343,0.1391377379619261,0.7565325591041062,0.7060206961429916,0.4290901855444461,0.2946881199030196,0.1937806665392213,0.1343856471298572,0.142491311505396
0.1441557158383559,0.5987922449412014,0.805926038193392,0.6228441262609827,0.1323254945875326,0.7464744919120697,0.6991533396048918,0.4236681092374272,0.2898391007273529,0.188746574906009,0.1276146116358304,0.1351137125785013
0.134077660310246,0.5909524314016315,0.8079721127614429,0.6323896301117258,0.1263531168346398,0.7439858979676484,0.6934148635936029,0.4177983385564344,0.2856513114392771,0.1843178487223603,0.1211885970586967,0.1264557039204926
0.1395119059381484,0.6017586608750926,0.8114580175810852,0.6238203709729906,0.1267263904441956,0.7516590626296143,0.7075258701787394,0.4246629856240362,0.2889574608772317,0.1875039826674313,0.1245094233837926,0.1301140174379611
0.1516648552514573,0.611823286365081,0.8094119430130342,0.6119969627942292,0.1337252706233669,0.7551845707175445,0.7215428033866416,0.4326717405362384,0.2938064800528984,0.1923469062639393,0.1305904170440333,0.1375525882568136
0.1514672463195336,0.6088568704311897,0.8074416489845407,0.6136240373142423,0.1348450914520343,0.7523849025300705,0.731420507996237,0.4365020146246829,0.2973645265908876,0.195469317530109,0.133695605296071,0.1413328455581977
0.138326252346606,0.597414980400466,0.8093361624734768,0.6266406334743465,0.1274729376633072,0.7481335545416841,0.7331138287864535,0.434860468586778,0.2958846311281841,0.1933346077869113,0.1299866304394704,0.1355405158222059
0.1315087441952376,0.591588091958894,0.8103970900272811,0.6334743464584011,0.1235535647629712,0.7459560348403154,0.7336782690498589,0.4328209719942297,0.2943732485279763,0.1920282928694322,0.1280458877819468,0.1306017925736236
0.1358561406975595,0.6036656425468799,0.8157017277963019,0.6247966156849983,0.1223404255319149,0.7554956449605974,0.739981185324553,0.4340645674774909,0.2958531439906798,0.193812527878672,0.1312804588778194,0.1339552466313029
0.139808319336034,0.6374615955079986,0.8368444983328283,0.6053801930795097,0.1112355356476297,0.7864993778515139,0.7580432737535276,0.4383922797592399,0.3013948801914418,0.2006945772000255,0.1367576659334972,0.1388329979879275
0.1239008003161742,0.6795211357135288,0.8790542588663232,0.5925805401887406,0.0777342291899962,0.8359601824968892,0.7682031984948259,0.4332686663682037,0.3034100569917189,0.2059516982093927,0.1401647474878164,0.1354185720382903
0.0944570694595395,0.704735671151605,0.9197484086086694,0.5958346892287667,0.0387271369914147,0.8761924512650354,0.7682972718720602,0.4201362980649654,0.3007966245788595,0.2074491811635761,0.1380946219864579,0.1238948844582647
0.0979152257682047,0.7061129356923402,0.9180812367384056,0.5932313699967459,0.0414333706606943,0.8756739941932807,0.7878645343367827,0.4399343381584838,0.3228691079693945,0.2328108073663417,0.1591840255315478,0.1359063471739528
0.1685604189309356,0.723381714164636,0.8762503789026979,0.5456123223776982,0.1005972377752893,0.855454168394857,0.8506114769520225,0.5224095906083669,0.3996032620674454,0.316637991461161,0.2426359598050632,0.2116944088775074
0.288904258472483,0.7293145460324185,0.7881933919369507,0.4765158910944788,0.2115528182157521,0.7981128162588138,0.903857008466604,0.6319454807740138,0.5148146981957871,0.4507742305486523,0.3767197136326389,0.3411987073958905
0.436518130619504,0.7068545396758131,0.6588360109123977,0.4069855732725892,0.3609555804404628,0.6986727498963087,0.8754468485418626,0.7320300452668757,0.6484775969016657,0.6097304530682471,0.5315909777030232,0.4925919151271265
0.594111253828673,0.7048416145778152,0.5366020006062443,0.321509925154572,0.5106382978723405,0.614060555785981,0.7733772342427093,0.8172909515992638,0.7809439843823799,0.7657872936978272,0.6828826497606418,0.646302054752759
0.7417251259756941,0.7444644559805064,0.4516520157623522,0.2201974183750948,0.6326054497946996,0.5753836582330983,0.6460959548447789,0.8585285778242053,0.854340501904972,0.8591728796278596,0.7905723034458965,0.7744649716480704
0.8980337911273589,0.8069710774446445,0.3765535010609275,0.1023972231261525,0.7527062336692796,0.5545416839485691,0.4859830667920978,0.8537531711684824,0.870682326269719,0.8814439559039063,0.8534092379350499,0.8874458874458875
0.9795474755458946,0.8017798495603347,0.3103213094877235,0.060310228875149,0.8319335572974992,0.5066362505184571,0.3483537158984007,0.8061980798885738,0.8439497465285433,0.8404702733702926,0.8416785267606849,0.9239680507286142
0.8790633336626814,0.6718932090263798,0.2944831767202182,0.1819069313374552,0.7942329227323628,0.4322895064288677,0.2673565380997177,0.6299059841814655,0.6736673069051292,0.6692474351621742,0.686764135075689,0.7967806841046279
0.6481572967098113,0.5725182752410213,0.4005001515610791,0.3595834689228767,0.6200074654721912,0.4561385317295728,0.1298212605832549,0.316868129134955,0.356938190749079,0.3787994647294972,0.4175615646698581,0.5469788427534907
0.4062839640351744,0.5867146943532152,0.5961655046983934,0.4850851502332139,0.3852183650615901,0.5969514724180838,0.0488240827845719,0.0698403223399493,0.0863062438993671,0.1069266551965844,0.1461594859188338,0.275166148405585
0.3215097322398972,0.6157431931348658,0.6819490754774175,0.5167588675561341,0.2923665546845838,0.6699502281211116,0.0356538099717779,0.0,0.0,0.0126808131013827,0.0468797170828481,0.1718797634290592
0.3052069953561901,0.6209344210191756,0.6981661109427099,0.5230502223668511,0.274729376633072,0.6835338034010785,0.0715898400752587,0.0275083320897378,0.0137598790893919,0.0131587331931434,0.034933367835425,0.1501737698920797
0.2897934986661397,0.6224176289861213,0.7110488026674749,0.530751708428246,0.259518477043673,0.6930734135213605,0.1985888993414863,0.1456001591802219,0.0992789445511508,0.0701905308099152,0.0664596541165308,0.1543808304371684
0.2455290979152257,0.6253840449200126,0.7471203394968172,0.5535307517084282,0.2164053751399776,0.7192036499377851,0.3686735653809972,0.2744366512460827,0.1910009761012626,0.1333715669406741,0.1058782938715659,0.1607219072007804
0.2006718703685407,0.5982625278101492,0.7621248863291907,0.5920381820154029,0.1859835759611795,0.7161965989216093,0.5082784571966134,0.3637765507635676,0.2484964891841683,0.1663480532721595,0.1179971535774356,0.1446862996158771
0.1978065408556467,0.5860790337959529,0.7556077599272508,0.5998481397114654,0.1886898096304591,0.7057237660721692,0.5984948259642521,0.4150126846739292,0.280865266538619,0.1852099662269802,0.1283477810842282,0.14627156880678
0.1993874123110365,0.5889395063036338,0.7564413458623825,0.5975702353834472,0.188876446435237,0.7076939029448361,0.6501411100658514,0.4329204596328905,0.2931767373028118,0.1919964315299815,0.134170009056799,0.1513322358392781
0.181899021835787,0.5879860154677401,0.7691724765080327,0.6075496257728604,0.1728256812243374,0.7159892160929074,0.683725305738476,0.4357558573347262,0.2952548883780976,0.1905945325941502,0.1313667141070427,0.1463325406987379
0.1542337713664657,0.5696578027333403,0.7772809942406791,0.6321726868423907,0.1547219111608809,0.712567399419328,0.6939793038570085,0.4303835248470378,0.2901539721023962,0.1822468616580641,0.1185146849527752,0.1301140174379611
0.1377334255508349,0.5583218561288271,0.7818278266141255,0.647033300791843,0.1441769316909294,0.7100788054749066,0.7061147695202258,0.4290404417251157,0.2864384898768853,0.1754603963550627,0.1080778022167594,0.1159685385037497
0.1334848335144748,0.561182328636508,0.7871324643831464,0.6479010738691833,0.1388577827547592,0.7151596847781004,0.7231420507996237,0.4335671292841864,0.2878868982020845,0.1745045561715414,0.1061370595592357,0.1126150844460703
0.1411915818595,0.5713528975527068,0.7885722946347379,0.6384640416531077,0.1415640164240388,0.7210700953961012,0.7487300094073378,0.4439635875242501,0.2939009414654114,0.1784872236028802,0.1105360762496226,0.116822144991159
0.1379310344827586,0.567750821061553,0.7884207335556229,0.6421520772318039,0.1401642403882045,0.7192036499377851,0.7644402634054561,0.4510272098691738,0.2971441166283573,0.180494487988275,0.1124336912925346,0.1171879763429059
0.1231103645884793,0.5513295899989406,0.7880418308578357,0.658639765701269,0.1333519970138111,0.7109083367897138,0.7664158043273753,0.4478933492513555,0.294152838565446,0.1764799592174855,0.1063958252469055,0.1086519114688129
0.1171820966307677,0.5478334569339972,0.7900879054258866,0.6636294608959757,0.1293393057110862,0.7107009539610121,0.7646284101599247,0.4460030841167985,0.2933971472653421,0.1736124386669215,0.1027299780049165,0.1033473568684836
0.1203438395415472,0.5644665748490305,0.7994846923310095,0.6534331272372275,0.1250466592011945,0.7252177519701369,0.7776105362182503,0.4548574839576182,0.2977108851034353,0.1767348499330912,0.1068702290076336,0.1059691482226693
0.1284458057504199,0.5829007310096408,0.8065322825098514,0.6395487579997831,0.1244867487868607,0.7391124014931565,0.7978363123236124,0.4636621399791076,0.3035989798167449,0.1815459121901484,0.1125630741363695,0.1132857752576062
0.1256792807034878,0.5824769573047991,0.80835101545923,0.6412843041544636,0.122060470324748,0.7401493156366653,0.8032925682031984,0.4645077849077252,0.3048899524544223,0.1821831389791626,0.1123474360633113,0.1139564660691421
0.1158976385732635,0.5712469541264963,0.8078205516823279,0.6524568825252196,0.1177678238148563,0.7342389050186645,0.7917215428033866,0.458488782768741,0.3005762146163292,0.178296055566176,0.1063526976322939,0.1060301201146271
0.1114514376049797,0.5705053501430235,0.8107002121855107,0.6552771450265755,0.1139417693169093,0.7358979676482789,0.790310442144873,0.4580908322140974,0.3006706760288423,0.1775951060982603,0.1044982102039936,0.1024937503810743
0.1210354708032803,0.5843839389765865,0.8132009699909064,0.6429113786744767,0.1169279581933557,0.744296972210701,0.7967074317968016,0.4656021489329951,0.3049214395919267,0.1813866054928949,0.1085090783628757,0.107981220657277
0.1294338504100385,0.5914821485326834,0.8118369202788724,0.6346675344397441,0.1216871967151922,0.7468892575694732,0.8009407337723424,0.4702780679500573,0.308101640479864,0.1843815714012617,0.1125630741363695,0.1150539601243826
0.1225175377927082,0.5760144083059644,0.8062291603516216,0.6462739993491702,0.1218738335199701,0.7354832019908752,0.7995296331138287,0.4687360095508133,0.3054567209295003,0.181482189511247,0.1101910553327295,0.1129809157978172
0.1081908902282383,0.5429600593283186,0.793573810245529,0.6711140036880355,0.1229003359462486,0.7107009539610121,0.7808090310442145,0.4553549221509227,0.296640322428288,0.1723061237494424,0.0992797688359856,0.0999939028108042
0.1021638178045647,0.5250556202987604,0.7853137314337679,0.6835882416748021,0.1251399776035834,0.6962878473662382,0.7692380056444026,0.4486395065413122,0.2913819704650651,0.1667622506850188,0.0920774571958425,0.0909700628010487
0.1149095939136449,0.5351202457887487,0.7827371930888148,0.6714394185920382,0.1327920865994774,0.6993985897967647,0.7749764816556914,0.4523205491717654,0.2916338675650997,0.1675906455107373,0.0936300513218614,0.0946893482104749
0.1252840628396403,0.5449729844263163,0.781903607153683,0.6607007267599522,0.1382045539380366,0.7036499377851514,0.7802445907808089,0.4583892951300801,0.2953493497906105,0.1709998088319632,0.0987191098460344,0.1024937503810743
0.1206402529394328,0.5360737366246424,0.7790239466505002,0.6678598546480095,0.1377379619260918,0.697324761509747,0.779492003762935,0.4583892951300801,0.2956957083031582,0.1706811954374562,0.0975115366369086,0.1015791720017072
0.1056219741132299,0.5196525055620298,0.7787966050318278,0.6844560147521422,0.1308324001493094,0.6891331397760266,0.7703668861712135,0.4505297716758692,0.2906892534399697,0.1643407888867648,0.0888428860999698,0.0909700628010487
0.1003853374172512,0.5158385422184553,0.7800848742043043,0.6893372383121813,0.1275662560656961,0.6880962256325176,0.7669802445907808,0.4485897627219818,0.2891148965647533,0.1617281590518065,0.0857808254625436,0.0870068898237912
0.1061159964430392,0.5205000529717131,0.7790239466505002,0.6836967133094696,0.1309257185516984,0.6896515968477811,0.7785512699905927,0.4538626075710093,0.2916338675650997,0.1628751672720321,0.0877215681200672,0.0895067373940613
0.1187629680861575,0.5317300561500158,0.7774325553197939,0.671005532053368,0.1379245987308697,0.6941103276648694,0.7904985888993415,0.4625180321345073,0.2966088352907837,0.1672083094373287,0.0938025617803079,0.0974940552405341
0.1170832921648058,0.5309884521665431,0.7781145801758108,0.672415663304046,0.1367114594998134,0.6942140190792202,0.7953904045155221,0.4641098343530816,0.2959161182656885,0.1665073599694131,0.0928537542588519,0.0965185049692092
0.1017685999407173,0.5164742027757177,0.7794786298878449,0.688252521965506,0.1285927584919746,0.6880962256325176,0.7888993414863592,0.4579416007561061,0.2918857646651343,0.1612183776205951,0.085263294087204,0.0862142552283397
0.0998913150874419,0.5140375039728785,0.7791755077296151,0.6905304262935242,0.127939529675252,0.6866445458316051,0.7892756349952963,0.4565487738148535,0.2904058692024308,0.1573312942076085,0.0799154698753612,0.080117066032559
0.1108586108092085,0.527280432249179,0.7802364352834192,0.6777307734027552,0.1324188129899216,0.6939029448361675,0.8063969896519284,0.4646570163657166,0.2940268900154287,0.1601988147581724,0.0838832104196317,0.0865191146881287
0.1230115601225175,0.5415827947875834,0.7811458017581085,0.6636294608959757,0.1376446435237029,0.7014724180837827,0.8214487300094073,0.4758493757150674,0.3009540602663811,0.1662524692538074,0.0915599258205028,0.0972501676727028
0.1206402529394328,0.5344845852314862,0.7778872385571386,0.6686191560906822,0.1384845091452034,0.6957693902944837,0.8291627469426153,0.4800776003581555,0.3023080071790674,0.1666985280061173,0.0912149049036097,0.0963355892933357
0.1087837170240094,0.5193346752833986,0.7762200666868748,0.6828289402321294,0.1339119074281448,0.6872666943177105,0.8294449670743179,0.4813211958414167,0.3005447274788249,0.1626839992353278,0.0850907836287575,0.0868849460398756
0.1092777393538187,0.5174276936116112,0.7744771142770537,0.6835882416748021,0.1352183650615901,0.6850891746163418,0.829821260583255,0.4831119733373128,0.3007966245788595,0.1611546549416937,0.0826325095958942,0.0848728736052679
0.1233079735204031,0.5363915669032736,0.7772052137011215,0.6661243084933289,0.1401642403882045,0.6962878473662382,0.8436500470366886,0.4938566383126896,0.3063698479171258,0.1648187089785254,0.0879803338077371,0.0921895006402048
0.134077660310246,0.554084119080411,0.7816004849954532,0.6512636945438768,0.1425905188503173,0.707901285773538,0.855785512699906,0.5057951549519972,0.3130136339305394,0.1691837124832728,0.0951395178332686,0.1013962563258338
0.129829068273886,0.5455027015573684,0.778645043952713,0.6578804642585963,0.1423105636431504,0.7016798009124845,0.8627469426152399,0.5112172312590161,0.3136748638181303,0.1690244057860192,0.0942338379264243,0.1012743125419182
0.1177749234265388,0.521771374086238,0.7709912094574113,0.6767545286907474,0.1413773796192609,0.68488179178764,0.8650047036688616,0.510321842511068,0.310778047167732,0.1638628687950041,0.0885841204123,0.0947503201024327
0.1144155715838355,0.5101175972030935,0.7652318884510457,0.6844560147521422,0.1433370660694289,0.6752384902530071,0.8655691439322672,0.5138536536835299,0.3089832803299852,0.1607085961893838,0.0842713589511364,0.0903603438814706
0.1265685208971445,0.5149909948087721,0.7593967869051228,0.6753443974400695,0.152668906308324,0.6735794276233928,0.8801505174035748,0.5253942197681938,0.3144305551182342,0.1646275409418212,0.089403545089921,0.0978598865922809
0.1438593024404703,0.5249496768725499,0.7532585632009701,0.6608091983946198,0.1646136618141097,0.674305267523849,0.8936030103480715,0.5385265880714322,0.321767058156743,0.1709360861530618,0.0983740889291413,0.1091396866044753
0.1463294140895168,0.5208178832503443,0.7484086086692937,0.661460028202625,0.1688129899216125,0.6689133139776027,0.896519285042333,0.5444461025717555,0.3256714632072798,0.1725291531255974,0.1004442144304998,0.1120663374184501
0.1396107104041102,0.5024896705159445,0.7404516520157624,0.6745850959973967,0.1704927211646136,0.6545002073828287,0.8863593603010348,0.5444461025717555,0.3249472590446802,0.1704900274007519,0.0960883253547246,0.1072495579537833
0.1422784309850805,0.4949676872550058,0.733025159139133,0.6769714719600824,0.1763717805151176,0.6456864371630029,0.879868297271872,0.5455404665970253,0.3253880789697408,0.1702351366851462,0.0947082416871522,0.1082251082251082
0.1594704080624444,0.5014302362538403,0.7244619581691422,0.6641718190693134,0.1897163120567376,0.6430941518042306,0.8857008466603951,0.557827189971646,0.3321263263956674,0.1751099216211049,0.101134256264286,0.1174318639107371
0.1765635806738464,0.5083165589575166,0.7162776598969385,0.6512636945438768,0.2027808883911908,0.640812940688511,0.8911571025399811,0.5666318459931354,0.338014421108977,0.1809086854011342,0.1088540992797688,0.1277361136516066
0.1757731449461515,0.4999470282868946,0.7108972415883602,0.6560364464692483,0.2057670772676372,0.6330360846121942,0.87826904985889,0.5644928617619261,0.3388015995465852,0.1827247817498247,0.1112261180834088,0.1318212304127797
0.1731054243651813,0.4860684394533319,0.7030160654743862,0.6646057056079835,0.2094064949608063,0.6208004977187889,0.8497648165569143,0.5547430731731583,0.3365030385087692,0.1832027018415854,0.1120024151464182,0.1308456801414547
0.1789348878569311,0.4880813645513295,0.6999848438920886,0.6603753118559497,0.2139790966778649,0.6197635835752799,0.8262464722483536,0.5467840620802865,0.3360307314462042,0.1862613904288536,0.1166601975244749,0.1348698250106701
0.1942495800810197,0.5067274075643606,0.7016520157623523,0.6424774921358064,0.2201381112355356,0.6300290335960183,0.8185324553151458,0.5447943093070686,0.3398091879467238,0.1939081118970241,0.1271402078751024,0.1469422596183159
0.206106115996443,0.5227248649221314,0.7039254319490755,0.6277253498210218,0.2243374393430384,0.6394649523019494,0.8201317027281279,0.5457891856936775,0.3442488743348342,0.2031797616771809,0.1396040884978652,0.1607828790927382
0.2055132892006719,0.5291874139209661,0.7089269475598667,0.6247966156849983,0.2209779768570362,0.6459975114060555,0.8069614299153339,0.5370840173108491,0.3433987216222173,0.2072261517874211,0.1438737223444171,0.1650509115297848
0.1914830550340875,0.5275982625278101,0.7186268566232192,0.633257403189066,0.2083799925345278,0.6518042306097055,0.7821260583254939,0.5178829030492962,0.3368808841588211,0.2069712610718155,0.1431405528960193,0.1602951039570758
0.1864440272700326,0.5368153406081152,0.7290845710821461,0.6313049137650504,0.1996080627099664,0.6635213604313563,0.7650047036688618,0.5038551459981097,0.3335117604458579,0.208118269292041,0.1450381679389313,0.1596853850374977
0.1939531666831341,0.5576861955715646,0.7382540163685967,0.6165527714502658,0.1974617394550205,0.680008295313148,0.7662276575729068,0.5011192359349351,0.3350861173210743,0.2143630918243803,0.1526717557251908,0.1670629839643924
0.198992194447189,0.57220044496239,0.7448469233100941,0.6062479661568501,0.1957820082120194,0.691621733720448,0.7797742238946377,0.5003233348256478,0.3362826285462389,0.2199069648888039,0.1594859188338293,0.1742576672154137
0.192569904159668,0.5748490306176501,0.7515913913307063,0.6085258704848683,0.1886898096304591,0.6975321443384488,0.7713076199435559,0.4945530517833159,0.3343934002959791,0.2200662715860575,0.1609953853452365,0.1730992012682153
0.1786384744590455,0.5743193134865981,0.7618975447105184,0.6163358281809307,0.1757185516983949,0.7043757776856077,0.7565380997177799,0.4809729891061036,0.329607355395321,0.2166571082648314,0.1563807305817915,0.1664532650448143
0.1721173797055627,0.5801462019281702,0.7709912094574113,0.6169866579889359,0.1670399402762225,0.7133969307341353,0.7481655691439322,0.4741580858578322,0.3254510532447495,0.2154782387051551,0.1532324147151421,0.1610877385525272
0.1783420610611599,0.5949782815976268,0.7769020915428919,0.6060310228875149,0.1662933930571108,0.7246992948983825,0.7579492003762934,0.4772422026563199,0.3273717686325136,0.2186643726502262,0.157631431405529,0.1641973050423754
0.18259065309752,0.6075855493166649,0.7826614125492574,0.5972448204794446,0.1648002986188876,0.734757362090419,0.7682972718720602,0.4793811868875292,0.3298277653578513,0.22242401070541,0.1618579376374692,0.1687092250472532
0.1823930441655963,0.6082212098739272,0.7832676568657169,0.596919405575442,0.1643337066069429,0.735586893405226,0.7650047036688618,0.4789832363328857,0.329701816807834,0.2220098132925508,0.1620304480959158,0.1679165904518017
0.1759707538780753,0.6057845110710879,0.7864504395271295,0.6016921575008135,0.1593878312803285,0.7365201161343841,0.7445907808090311,0.4726657712779187,0.3265531030574011,0.2186006499713248,0.1573295381032475,0.1622462044997256
0.1757731449461515,0.6140480983154996,0.7925128826917248,0.5975702353834472,0.1555617767823815,0.7447117378681046,0.7325493885230479,0.4704272994080485,0.3260178217198275,0.2193334607786911,0.1570707724155777,0.1609657947686116
0.1842703290188716,0.635448670410001,0.801303425280388,0.5819503199913223,0.1540686823441582,0.7611986727498964,0.7424270931326434,0.4788837486942248,0.3332913504833276,0.2266297075129038,0.1652650191917885,0.1701725504542406
0.1936567532852485,0.6556838648161881,0.8085783570779024,0.5664388762338649,0.1540686823441582,0.7761302364164248,0.7586077140169332,0.4877381485350445,0.3395258037091848,0.2334161728159051,0.1740630525725622,0.1806597158709834
0.1906926193063926,0.654094713423032,0.809715065171264,0.5689337238312181,0.1519223590892124,0.7761302364164248,0.761241768579492,0.4893299507536189,0.3411316477219056,0.2341808449627222,0.1752274981670764,0.1808426315468569
0.1749827092184566,0.64042801144189,0.8119884813579872,0.584553639223343,0.143150429264651,0.7709456656988802,0.7617121354656632,0.4858478834004875,0.3384867281715419,0.2298158414579749,0.168283952214603,0.1716968477531857
0.1705365082501729,0.633329801885793,0.8103213094877235,0.590628050764725,0.1420306084359835,0.7663832434674409,0.7591721542803387,0.4832114609759738,0.3367864227463081,0.2283183585037915,0.1656531677232932,0.1676727028839705
0.1847643513486809,0.64042801144189,0.8044862079418006,0.5792385291246338,0.1523889511011572,0.7657610949813355,0.7656632173095014,0.4892802069342884,0.340501904971819,0.2323966099534824,0.1716910337689222,0.1743796109993293
0.1974113229917992,0.6407458417205211,0.7950136404971204,0.5720794012365766,0.1642403882045539,0.7594359187059312,0.7743179680150517,0.4974381933044819,0.3445322585723732,0.2364111387242719,0.1774270065122698,0.1837692823608316
0.192569904159668,0.61945121305223,0.7834949984843893,0.5856383555700184,0.1689996267263904,0.7411862297801742,0.769802445907808,0.4967417798338556,0.3437135929972606,0.2361562480086662,0.1778582826583861,0.1832815072251692
0.1812073905740539,0.5944485644665748,0.7743255531979388,0.604620891636837,0.1692795819335573,0.7227291580257156,0.7580432737535276,0.4889817440183057,0.338297805346516,0.2310265723571019,0.170526588174408,0.1741966953234559
0.1776504297994269,0.5829007310096408,0.7687177932706881,0.6125393209675669,0.1710526315789474,0.7131895479054335,0.7571966133584196,0.4859971148584789,0.3348971944960484,0.2281909131459887,0.1655237848794583,0.1688311688311688
0.1867404406679182,0.5878800720415298,0.7653076689906033,0.6049463065408396,0.1773982829413961,0.7132932393197843,0.7686735653809971,0.4905238024175496,0.3379829339714726,0.2308354043203976,0.169232759736059,0.1743796109993293
0.1939531666831341,0.5911643182540522,0.7622006668687482,0.5994142531727953,0.1828107502799552,0.7127747822480298,0.7766698024459077,0.4949510023379595,0.3399981107717498,0.2336392021920601,0.1731573726657178,0.180171940735321
0.1885189210552317,0.5759084648797541,0.7555319793876932,0.6101529450048813,0.1843038447181784,0.7007465781833264,0.7761994355597365,0.491120728249515,0.3366919613337952,0.2304849295864398,0.17005218441368,0.1763307115419791
0.176168362809999,0.5568386481618816,0.7512882691724765,0.6266406334743465,0.1810377006345651,0.6885109912899212,0.7606773283160865,0.4813211958414167,0.3286627412701911,0.2227107627604664,0.1615560443351878,0.1651118834217425
0.1753779270823041,0.5623477063248224,0.755835101545923,0.6243627291463283,0.1778648749533408,0.6943177104935712,0.7487300094073378,0.4732626971098841,0.3237822349570201,0.2177722551456063,0.1565101134256264,0.1585878909822572
0.180416954846359,0.5798283716495392,0.7645498635950289,0.6126477926022346,0.1748786860768943,0.708834508502696,0.7578551269990593,0.4736606476645276,0.3248213104946629,0.2188555406869304,0.1585371113123733,0.1607219072007804
0.1870368540658037,0.5923296959423667,0.7682631100333435,0.6025599305781538,0.1757185516983949,0.71744089589382,0.764346190028222,0.4779883599462766,0.3274977171825309,0.2211495571273816,0.1616854271790227,0.1663313212608987
0.179033692322893,0.58533742981248,0.7694755986662625,0.6105868315435514,0.1712392683837253,0.7149523019493986,0.7650047036688618,0.4738596229418494,0.3260807959948361,0.2200344102466067,0.1606072368137318,0.1643802207182489
0.1646082402924612,0.5710350672740756,0.7703091846013944,0.6257728603970062,0.1639604329973871,0.7084197428452924,0.7544684854186264,0.4643088096304034,0.3200667527315092,0.214171923787676,0.1534480527882003,0.1545027742210841
0.1627309554391858,0.5741074266341772,0.7739466505001515,0.6252305022236685,0.1607876073161627,0.7124637080049773,0.7461900282220131,0.45948365915535,0.3171699360811109,0.211973491365577,0.1508603959115021,0.1502957136759954
0.1721173797055627,0.5869265812056361,0.775916944528645,0.6135155656795748,0.164053751399776,0.7200331812525923,0.7547507055503293,0.4648062478237079,0.3201927012815265,0.2158605747785637,0.1564669858110148,0.1582830315224681
0.1814049995059776,0.5937069604831019,0.7735677478023644,0.6049463065408396,0.169839492347891,0.7217959352965575,0.7636876763875823,0.4695816544794309,0.3239396706445417,0.2198113808704518,0.1622892137835856,0.1666971526126456
0.1754767315482659,0.5850195995338487,0.7719763564716581,0.6126477926022346,0.167973124300112,0.7165076731646619,0.751552210724365,0.4645077849077252,0.3207594697566044,0.2176448097878034,0.1606934920429551,0.1643192488262911
0.1637190000988044,0.5743193134865981,0.7733404061836922,0.6245796724156633,0.1616274729376633,0.7121526337619246,0.7282220131702728,0.4544097895836443,0.3148398879057905,0.2128337475307462,0.1553456678311122,0.1571855374672276
0.1648058492243849,0.5825829007310096,0.7784177023340406,0.6198069204902918,0.1590145576707727,0.7197221070095395,0.717027281279398,0.4499328458439038,0.3125728140054788,0.2109539285031542,0.1528442661836374,0.1546856898969575
0.1727102065013338,0.6051488505138255,0.7884965140951803,0.6038615901941642,0.156494960806271,0.737660721692244,0.7251175917215428,0.4527682435457394,0.3146194779432602,0.2133116676225068,0.1566826238840729,0.1601731601731602
0.1727102065013338,0.6280326305752727,0.8048651106395878,0.5921466536500706,0.1464165733482643,0.7600580671920365,0.7451552210724364,0.4599810973486544,0.3193110614314053,0.2177403938061556,0.1634536593780998,0.1677336747759283
0.1712281395119059,0.6364021612458947,0.8119127008184298,0.5886755613407094,0.1413773796192609,0.7688718374118623,0.7513640639698964,0.4623688006765159,0.3211373154066564,0.2199069648888039,0.1658688057963514,0.1692579720748734
0.1639166090307282,0.6329060281809513,0.8150954834798424,0.5945330296127562,0.1359649122807017,0.7693902944836167,0.7390404515522107,0.456051335621549,0.3185868572688057,0.2183776205951698,0.1622892137835856,0.1649289677458691
0.1652998715541942,0.6373556520817883,0.8172173385874508,0.5914958238420652,0.135405001866368,0.773019493985898,0.7342427093132643,0.4577923692981147,0.318996190056362,0.218027145861212,0.1622029585543623,0.1661484055850253
0.1772552119355795,0.6548363174065049,0.8205516823279783,0.5758759084499403,0.1389511011571482,0.7839070924927417,0.7466603951081843,0.4648062478237079,0.324443464844611,0.2227107627604664,0.168283952214603,0.1739528077556246
0.1841715245529098,0.6653247166013349,0.822749317975144,0.5667642911378674,0.1409107876073161,0.7904396515968477,0.7587017873941674,0.4698303735760832,0.3284423313076608,0.226502262155101,0.1721654375296502,0.1789525028961648
0.177551625333465,0.6598156584383937,0.8238860260685056,0.5732725892179195,0.1369914147069802,0.7885732061385318,0.7559736594543743,0.4695816544794309,0.3273402814950093,0.226056203402791,0.1705697157890197,0.1773672337052619
0.1643118268945756,0.6468905604407246,0.8247196120036375,0.5871569584553639,0.1302724897349757,0.7827664869348818,0.7441204139228599,0.46281649505049,0.32167259674423,0.2208628050723252,0.1632380213050416,0.1671239558563502
0.1592727991305207,0.639368577179786,0.823279781752046,0.593665256535416,0.1287793952967525,0.7782040647034425,0.7413922859830668,0.4591851962393672,0.31861834440631,0.2178678391639584,0.1586233665415966,0.1591366380098774
0.1670783519415077,0.6376734823604194,0.8161564110336466,0.5903026358607224,0.1368980963045913,0.7723973454997927,0.753151458137347,0.4637616276177685,0.3195944456689442,0.2183457592557191,0.1604778539698969,0.1616364855801475
0.1725125975694101,0.6302574425256912,0.806608063049409,0.5910619373033952,0.1452967525195969,0.7623392783077563,0.7632173095014111,0.4675421578868825,0.321011366856639,0.2188874020263811,0.1618579376374692,0.165599658557405
0.1642130224286137,0.6050429070876152,0.7949378599575628,0.6085258704848683,0.1485628966032101,0.7420157610949815,0.7574788334901222,0.4617718748445505,0.3169495261185806,0.2154145160262537,0.15845085608315,0.1618803731479788
0.1556170338899318,0.5713528975527068,0.7774325553197939,0.6305456123223777,0.1552818215752146,0.7135006221484861,0.7416745061147695,0.4520718300751132,0.310494662930193,0.2087873574205059,0.1506878854530556,0.1516370952990671
0.1606560616539867,0.5538722322279902,0.7610639587753865,0.6367284954984272,0.1676931690929451,0.6936955620074657,0.7377234242709313,0.451823110978461,0.3082275890298813,0.2063021729433505,0.1474964419717945,0.1482226693494299
0.1674735698053552,0.5537662888017798,0.7556835404668082,0.633040459919731,0.1742254572601717,0.6900663625051845,0.7453433678269049,0.4526190120877481,0.3087313832299506,0.2065570636589562,0.1491784189416483,0.1515151515151515
0.1732042288311431,0.5623477063248224,0.7575022734161867,0.6254474454930036,0.1759051885031728,0.6954583160514309,0.7503292568203198,0.4557031288862359,0.3111244056802796,0.2090422481361116,0.1528011385690257,0.1577952563868057
0.1631261733030332,0.5520711939824133,0.7579569566535315,0.636294608959757,0.1707726763717805,0.6907922024056408,0.7455315145813735,0.4497338705665821,0.3072829749047515,0.2058242528515899,0.14922154655626,0.1530394488140967
0.1509732239897243,0.5366034537556944,0.7561382237041528,0.6508298080052066,0.1662000746547219,0.681978432185815,0.7316086547507055,0.4410784460030841,0.299789036178721,0.1983686994201236,0.139862854185535,0.1423083958295226
0.1498863748641438,0.5362856234770632,0.7567444680206123,0.6515891094478794,0.1653602090332213,0.6821858150145168,0.7257761053621824,0.4364522708053525,0.2965143738782708,0.1942904479704326,0.1353775822659249,0.1370038412291933
0.1583835589368639,0.547515626655366,0.7582600788117612,0.6412843041544636,0.1684397163120567,0.688718374118623,0.7368767638758231,0.4412276774610754,0.299600113353695,0.1978270566494615,0.1394747056540303,0.1427351990732272
0.167572374271317,0.5618179891937705,0.7614428614731737,0.6289185378023646,0.1707726763717805,0.6979469099958524,0.7428974600188146,0.4470974481420683,0.3036619540917535,0.2022239214936596,0.1443049984905335,0.1496859947564173
0.1594704080624444,0.5694459158809194,0.7730372840254623,0.6293524243410348,0.1598544232922732,0.7095603484031523,0.7389463781749765,0.442620504402328,0.3025913914166063,0.200853883897279,0.1429680424375728,0.1474910066459362
0.1411915818595,0.5683864816188154,0.7863746589875721,0.6399826445384532,0.1429637924598731,0.7181667357942763,0.7190968955785512,0.4288912102671243,0.2947825813155326,0.1941630026126298,0.1356363479535947,0.1364550942015731
0.1303230906036953,0.5856552600911112,0.8070627462867536,0.6370539104024298,0.1251399776035834,0.7407714641227706,0.7071495766698024,0.4164055116151818,0.2883906924021537,0.191391066080418,0.1325311597015569,0.1300530455460033
0.1274577610908012,0.6289861214111663,0.8402546226129131,0.6165527714502658,0.1033034714445688,0.784632932393198,0.7104421448730008,0.4077003432323534,0.2861865927768507,0.1949913974383483,0.136542027860439,0.1338942747393451
0.119059381484043,0.6781438711727937,0.8818581388299485,0.5959431608634342,0.0737215378872713,0.8372044794690999,0.7130761994355597,0.3950654131224195,0.2830063918889134,0.1975084432549544,0.1408979169362142,0.1349917687945857
0.1074992589665052,0.6693505667973302,0.8843588966353441,0.6067903243301876,0.0667226577081,0.8346121941103277,0.72793979303857,0.3972043973536288,0.2891463837022576,0.2082457146498438,0.1499547160046578,0.1376135601487714
0.1397095148700721,0.6566373556520817,0.8505607759927251,0.5956177459594315,0.1027435610302351,0.8052675238490253,0.767826904985889,0.4503307963985475,0.3400610850467584,0.2630472185050659,0.203217320050028,0.1835863666849582
0.2330797352040312,0.6444538616378853,0.7703091846013944,0.5506020175724048,0.1962486002239642,0.7444006636250519,0.8234242709313264,0.5535989653285579,0.4399697723479959,0.3712801886191296,0.3082330616293613,0.2822388878726907
0.3821756743404801,0.6386269731963131,0.6517884207335556,0.4717431391691072,0.3395856662933931,0.6605143094151805,0.8520225776105362,0.6756702979654778,0.5747032337290217,0.5237366978907794,0.4568508215810584,0.4275958783001037
0.5630866515166486,0.6729526432884838,0.5375871476204911,0.3548107169975051,0.4954273982829414,0.5991289921194526,0.8180620884289747,0.8047057653086604,0.7378066060014485,0.7005671318422227,0.6274205373700782,0.6006341076763613
0.7285841320027666,0.7342938870643075,0.454531676265535,0.2325631847271938,0.6246733855916388,0.5723766072169225,0.7484477892756349,0.9128985723523853,0.8710286847822666,0.8382718409481935,0.7670246258679432,0.7525150905432596
0.8662187530876394,0.7702087085496344,0.3746589875719915,0.1386267491051089,0.7388017917133259,0.5352550808793032,0.6492003762935089,0.9595085310650152,0.9152681129758496,0.8737972344357358,0.831716047785397,0.855313700384123
0.9526726608042684,0.7463714376522935,0.2913003940588057,0.1034819394728278,0.8310003732736095,0.4666113645790129,0.5280338664158043,0.9463761627617768,0.9060738688245852,0.8395144331867713,0.8255056712813216,0.8940308517773308
0.8900306293844481,0.6468905604407246,0.268187329493786,0.1887406443215099,0.8156028368794326,0.4021153048527582,0.457008466603951,0.826742277272049,0.7931295065965555,0.708564328044351,0.705955923577867,0.8044631424913116
0.70329018871653,0.5550376099163047,0.3457866020006062,0.3382145568933724,0.6797312430011199,0.4102032351721278,0.3462841015992474,0.5410137790379546,0.5161686451084732,0.4644427451730071,0.4834605597964377,0.6037436741662094
0.4502519513882028,0.5764381820108061,0.5550924522582601,0.466211085801063,0.431317655841732,0.5638739112401493,0.2205079962370648,0.2255882206635825,0.2034069082779684,0.1819601096030077,0.2111096735239574,0.333455277117249
0.2869281691532457,0.6188155524949677,0.7106698999696879,0.5342228007376071,0.2583986562150056,0.6909995852343426,0.1543744120413923,0.0735711087897328,0.0474511162190245,0.0347288600012744,0.0566265579850778,0.1630388390951771
0.2561999802391068,0.6543066002754527,0.7596241285237951,0.5328126694869292,0.2137924598730869,0.7419120696806305,0.2381937911571025,0.1494304332686663,0.0997827387512201,0.0692346906263939,0.0682710139302195,0.1470032315102737
0.2441458353917597,0.6757071723699544,0.7841770233404062,0.5284738041002277,0.1929824561403509,0.7691829116549149,0.4276575729068673,0.2983634283440282,0.2047923423281589,0.1457974893264513,0.1229137016431621,0.1727333699164685
0.2191483055034088,0.635978387541053,0.7749317975143982,0.5626423690205011,0.1868234415826801,0.7433637494815429,0.5800564440263405,0.3996418445008207,0.2689001542869738,0.1857516089976422,0.1437443395005822,0.1698067191024937
0.2028455686197016,0.5750609174700709,0.7439375568354046,0.6026684022128214,0.1982082866741321,0.6923475736209043,0.6547507055503292,0.4442123066209024,0.2971441166283573,0.1998024596954056,0.1477120800448527,0.1647460520699957
0.1855547870763758,0.5317300561500158,0.7262049105789633,0.6343421195357414,0.2010078387458007,0.659062629614268,0.6858889934148635,0.4490374570959559,0.3014263673289462,0.1972854138787994,0.1409841721654375,0.1544418023291263
0.1788360833909692,0.5237842991842356,0.7255228857229463,0.6421520772318039,0.1982082866741321,0.6547075902115305,0.702728127939793,0.4468487290454161,0.3011429830914072,0.1939081118970241,0.1366714107042739,0.1481616974574721
0.1753779270823041,0.5253734505773916,0.7293876932403759,0.6432367935784792,0.1941955953714073,0.6581294068851099,0.7301034807149576,0.4513754166044869,0.3034100569917189,0.1940992799337284,0.1363263897873808,0.147247119078105
0.1706353127161347,0.5248437334463396,0.7325704759017885,0.6460570560798351,0.1899962672639044,0.659995852343426,0.7536218250235184,0.4554544097895836,0.3034100569917189,0.1933027464474606,0.1354638374951481,0.1449911590756661
0.1545301847643513,0.507363068121623,0.732494695362231,0.6639548757999783,0.1824374766703994,0.651493156366653,0.7540921919096896,0.4494354076505994,0.2976164236909223,0.1860702223921493,0.1261051451244232,0.1327358087921468
0.1361525540954451,0.4856446657484902,0.7310548651106396,0.6851068445601476,0.1745987308697275,0.6398797179593531,0.7433678269049858,0.4403322887131274,0.2903428949274222,0.1769897406486968,0.1138569025747186,0.118102554722273
0.1275565655567631,0.47769890878271,0.731964231585329,0.6938930469682179,0.1700261291526689,0.6365615927001245,0.7482596425211664,0.4378948415659354,0.2873201297270065,0.1732619639329637,0.1079484193729244,0.1101152368758002
0.1343740737081316,0.4844792880601758,0.7315853288875417,0.6867339190801606,0.1734789100410601,0.6396723351306512,0.7627469426152399,0.4449087200915286,0.2913504833275607,0.1770534633275983,0.1105792038642342,0.1155417352600451
0.1397095148700721,0.4934844792880601,0.7339345256138223,0.679140904653433,0.1745054124673385,0.645582745748652,0.7699905926622765,0.4510769536885042,0.2943417613904719,0.1790288663735423,0.1139862854185535,0.1203585147247119
0.1345716826400553,0.4953914609598473,0.7392391633828433,0.6809849224427812,0.1688129899216125,0.6501451679800913,0.7625587958607714,0.4474953986967119,0.2927988916527599,0.1771490473459504,0.1127787122094277,0.1167002012072434
0.1272601521588776,0.4984638203199492,0.7471203394968172,0.683371298405467,0.1606009705113849,0.6570924927416011,0.7481655691439322,0.4396358752425011,0.2902169463774048,0.1747913082265978,0.1082934402898175,0.1091396866044753
0.12261634225867,0.505244199597415,0.7554561988481359,0.6825035253281267,0.1532288167226577,0.6661136457901286,0.7427093132643461,0.4385912550365617,0.2907207405774741,0.1749824762633021,0.1085522059774874,0.1092006584964331
0.1394131014721865,0.5266447716919164,0.7578811761139739,0.6623278012799654,0.1596677864874953,0.6782455412691829,0.7528692380056443,0.4467989852260857,0.2963569381907491,0.18071751736443,0.1161426661491352,0.1187732455338089
0.1502815927279913,0.5423243987710562,0.7607608366171567,0.6483349604078533,0.1630272489734976,0.6878888428038158,0.767826904985889,0.4563497985375317,0.3024969300040933,0.1869304785573185,0.1228274464139388,0.1270044509481129
0.1421796265191186,0.5371331708867464,0.7632615944225523,0.6553856166612431,0.1577081000373273,0.6870593114890087,0.7645343367826906,0.4529672188230612,0.3016467772914765,0.186325113107755,0.120671065683357,0.1238339125663069
0.1237031913842505,0.5296111876258077,0.7720521370112154,0.669378457533355,0.1435237028742068,0.6894442140190793,0.7517403574788334,0.4446102571755459,0.2960735539532101,0.1798253998598101,0.1125630741363695,0.1137125785013109
0.1246912360438691,0.5392520394109546,0.7781903607153684,0.6639548757999783,0.1402575587905935,0.6982579842389051,0.7523988711194731,0.4458041088394767,0.2963254510532447,0.1792200344102466,0.1121317979902531,0.1112127309310408
0.1419820175871949,0.5604407246530352,0.7800848742043043,0.6435622084824818,0.1472564389697648,0.7099751140605559,0.770931326434619,0.4572949311048102,0.3032211341666929,0.1854011342636844,0.119722258161901,0.1207853179684165
0.1478114810789447,0.5688102553236571,0.7816004849954532,0.6360776656904219,0.1490294886151549,0.7150559933637495,0.7900282220131701,0.4682385713575088,0.3092351774300199,0.1908812846492066,0.1262776555828697,0.1284677763551003
0.1385238612785298,0.5553554401949359,0.7790997271900576,0.6481180171385182,0.1462299365434864,0.7067606802156783,0.7889934148635936,0.4679898522608566,0.3085424604049246,0.1892563563372204,0.1234312330185017,0.1237119687823913
0.1299278727398478,0.5400995868206377,0.7747802364352835,0.6605922551252847,0.1447368421052632,0.6963915387805889,0.7797742238946377,0.4606775108192807,0.3034100569917189,0.1838080672911489,0.1166601975244749,0.1156027071520029
0.1280505878865724,0.5392520394109546,0.7756138223704152,0.6621108580106302,0.1433370660694289,0.69649523019494,0.7803386641580432,0.4587872456847237,0.30218205862905,0.1818645255846555,0.115107603398456,0.1131028595817328
0.1335836379804367,0.5492107214747324,0.7784934828735982,0.6539754854105652,0.1441769316909294,0.7034425549564496,0.7975540921919096,0.4668457444162562,0.3061809250920999,0.1846046007774167,0.1191184715573381,0.119687823913176
0.1395119059381484,0.5545078927852527,0.7777356774780236,0.6480095455038508,0.1474430757745427,0.7055163832434673,0.8055503292568202,0.4726160274585882,0.3088258446424635,0.1862613904288536,0.1217923836632595,0.1246265471617584
0.1350657049698646,0.5441254370166331,0.7737193088814793,0.6558195031999131,0.1478163493840985,0.6976358357527996,0.8031984948259643,0.4705765308660399,0.3066532321546648,0.1834257312177404,0.1177815155043774,0.1199317114810072
0.1243948226459835,0.5249496768725499,0.7681873294937861,0.6714394185920382,0.1462299365434864,0.6844670261302364,0.7951081843838192,0.4646072725463861,0.302748827104128,0.1785190849423309,0.1107948419372924,0.1113956466069142
0.1313111352633139,0.5188049581523466,0.7584874204304335,0.670788588784033,0.1554684583799925,0.6748237245956035,0.7956726246472248,0.4677411331642043,0.3025913914166063,0.1774676607404575,0.1108379695519041,0.1121273093104079
0.147613872147021,0.5200762792668714,0.7468929978781449,0.6611346132986224,0.1703060843598358,0.6674616341766901,0.8134524929444967,0.4797293936228424,0.3085424604049246,0.1817370802268527,0.1170914736705913,0.1223705871593195
0.1535421401047327,0.5177455238902426,0.7406789936344347,0.6591821238746068,0.1769316909294513,0.6621733720447948,0.8243650047036688,0.4858478834004875,0.3118486098428792,0.1835213152360925,0.1207141932979687,0.1269434790561551
0.1402035371998814,0.5033372179256277,0.7405274325553198,0.6738257945547239,0.1707726763717805,0.6549149730402323,0.8204139228598306,0.4805750385514599,0.308007179067351,0.1786783916395845,0.1157113900030189,0.1223096152673617
0.1264697164311826,0.4886110816823815,0.7406032130948773,0.6889033517735113,0.164147069802165,0.6477602654500207,0.8119473189087487,0.4723175645426056,0.3013633930539375,0.1718282036576817,0.1070427394660801,0.1120053655264923
0.1292362414781148,0.4936963661404808,0.7421188238860261,0.684781429656145,0.1646136618141097,0.651389464952302,0.8126999059266228,0.4733124409292145,0.3007021631663465,0.1695660485566813,0.1049726139647216,0.1090787147125175
0.1375358166189111,0.5055620298760461,0.7442406789936344,0.6741512094587265,0.1671332586786114,0.6586478639568644,0.8276575729068674,0.4811719643834253,0.3030951856166756,0.1707130567769069,0.1076033984560314,0.113346747149564
0.1427724533148898,0.507892785252675,0.7418914822673538,0.6701377589760277,0.1710526315789474,0.6581294068851099,0.836876763875823,0.4890314878376361,0.3056141566170219,0.1710635315108647,0.1091128649674386,0.1182244985061886
0.1334848335144748,0.492954762157008,0.738329796908154,0.6828289402321294,0.1689063083240015,0.6483824139361261,0.8246472248353715,0.4851017261105308,0.3017412387039894,0.1654877971069903,0.103031871307198,0.1116395341747454
0.131903962059085,0.4794999470282869,0.729918157017278,0.6906388979281918,0.1733855916386711,0.63604313562837,0.810912511759172,0.4812714520220862,0.2968607323908183,0.1590199451984961,0.0961745805839479,0.1043229071398085
0.1343740737081316,0.4781226824875516,0.7270384965140952,0.689879596485519,0.1762784621127286,0.6334508502695977,0.8142050799623706,0.4841068497239217,0.2973015523158789,0.1580003823360734,0.0951826454478802,0.1060301201146271
0.1419820175871949,0.4878694776989087,0.7281752046074568,0.6807679791734462,0.1791713325867861,0.638946495230195,0.8313264346190027,0.4958463910859075,0.3027803142416323,0.1623653858408207,0.1008754905766162,0.1152368758002561
0.1494911570002964,0.4959211780908993,0.7281752046074568,0.6725241349387135,0.1827174318775662,0.6428867689755289,0.8412041392285983,0.5027110381535095,0.3075348720047861,0.1649461543363282,0.1049726139647216,0.1213950368879946
0.1452425649639363,0.4939082529929017,0.7299939375568354,0.6758867556134072,0.1796379245987308,0.6430941518042306,0.8376293508936971,0.5039546336367706,0.3083850247174029,0.1648824316574269,0.1045844654332169,0.1206633741845009
0.1482066989427922,0.50132429282763,0.733025159139133,0.6704631738800304,0.1791713325867861,0.6487971795935297,0.8240827845719662,0.5054469482166841,0.3094870745300545,0.1654559357675396,0.104800103506275,0.1192000487775135
0.1589763857326351,0.5214535438076066,0.7391633828432859,0.6541924286799002,0.1804777902202314,0.6628992119452509,0.8235183443085606,0.5114162065363379,0.3163512705059983,0.1713821449053718,0.1120024151464182,0.1273702822998597
0.1802193459144353,0.549104778048522,0.7426492876629281,0.6284846512636946,0.1883165360209033,0.6788676897552883,0.8313264346190027,0.5227080535243496,0.327119871532479,0.1818645255846555,0.1245094233837926,0.1416377050179867
0.1958304515364094,0.5692340290284986,0.7450742649287664,0.609502115196876,0.1941955953714073,0.6902737453338863,0.8367826904985889,0.5352434959956226,0.3373531912213861,0.1920282928694322,0.1366282830896623,0.1542588866532528
0.1952376247406383,0.5693399724547091,0.7455289481661109,0.6098275301008786,0.1936356849570735,0.6906885109912899,0.8335841956726247,0.5392230015420585,0.3434302087597217,0.1987191741540814,0.1427092767499029,0.1594414974696665
0.1908902282383163,0.5629833668820848,0.7443922400727494,0.6154680551035905,0.1922359089212393,0.6867482372459561,0.8242709313264346,0.5373824802268319,0.3476179980477975,0.2034665137322373,0.1467632725233967,0.1607828790927382
0.2006718703685407,0.5745312003390189,0.7451500454683238,0.6041870050981669,0.196435237028742,0.6929697221070096,0.8178739416745061,0.5372829925881709,0.3524670172234642,0.2117186006499713,0.155259412601889,0.1684043655874642
0.214702104535125,0.5939188473355227,0.748257047590179,0.5865061286473587,0.2011944755505786,0.7045831605143095,0.8197554092191909,0.5389245386260757,0.3579142920117132,0.221882367934748,0.1669038685470306,0.1821840131699286
0.2174686295820571,0.5996397923508846,0.7502273416186723,0.5821672632606574,0.2011944755505786,0.7087308170883452,0.8255879586077141,0.5392727453613889,0.3604017758745553,0.2295290894029185,0.1741493078017854,0.1910249375038107
0.2085762276454895,0.5886216760250026,0.7491664140648681,0.5926890118234082,0.1976483762597984,0.7026130236416426,0.8124176857949199,0.5273342287220812,0.3560565508989577,0.2296565347607213,0.1738905421141156,0.1882812023657094
0.1982017587194941,0.577179785994279,0.7489390724461958,0.6041870050981669,0.1929824561403509,0.6968063044379926,0.7910630291627468,0.5121126200069641,0.3480903051103624,0.2256420059899318,0.1691896321214474,0.1806597158709834
0.1951388202746764,0.5767560122894373,0.7509851470142468,0.6060310228875149,0.1902762224710713,0.6980506014102033,0.7843838193791156,0.5039048898174402,0.3428949274221481,0.2243994137513541,0.1675076551515935,0.1776111212730931
0.1982017587194941,0.5791927110922767,0.7503789026977872,0.6031022887514915,0.1920492721164614,0.6988801327250104,0.7912511759172154,0.5002735910063175,0.341257596271923,0.2256420059899318,0.1708284814766895,0.1810865191146881
0.1980041497875704,0.5718826146837588,0.7453016065474386,0.6070072675995227,0.1950354609929078,0.6918291165491498,0.7981185324553152,0.4998756404516739,0.3393683680216632,0.2270120435863123,0.171949799456592,0.1843180293884519
0.1887165299871554,0.558004025850196,0.7424977265838133,0.6191560906822865,0.1924225457260172,0.6831190377436749,0.787206020696143,0.4909714967915237,0.3339210932334142,0.2229019307971707,0.1664294647863027,0.1779769526248399
0.179033692322893,0.5461383621146307,0.741436799030009,0.6306540839570453,0.1885031728256812,0.6764827872252178,0.7652869238005644,0.4758493757150674,0.3249157719071759,0.2148410119161409,0.157976452322422,0.1667581245046034
0.184665546882719,0.5563089310308296,0.7443922400727494,0.622301768087645,0.1893430384471818,0.6835338034010785,0.7545625587958608,0.4684375466348306,0.32167259674423,0.2132160836041547,0.1572432828740242,0.1654777147734894
0.1881237031913842,0.5627714800296642,0.7463625341012429,0.6170951296236034,0.1898096304591265,0.6879925342181668,0.764722483537159,0.4719693578072924,0.3235933121319941,0.2162747721914229,0.1616854271790227,0.1715749039692702
0.1802193459144353,0.5559911007521982,0.7476508032737194,0.6249050873196659,0.1852370287420679,0.6856076316880962,0.7714957666980244,0.4706760185047008,0.3221134166692906,0.2143312304849295,0.1587958770000431,0.1691970001829157
0.1644106313605375,0.540205530246848,0.7484086086692937,0.6417181906931337,0.1773049645390071,0.6783492326835338,0.7662276575729068,0.4634631647017858,0.31650870619352,0.209329000191168,0.151464182516065,0.1595024693616243
0.1514672463195336,0.5253734505773916,0.7477265838132768,0.6563618613732509,0.1716125419932811,0.6706760680215678,0.7472248353715898,0.4563000547182013,0.3100538430051324,0.202829286943223,0.1429680424375728,0.149137247728797
0.1549254026281988,0.533848924674224,0.7510609275538042,0.650070506562534,0.1712392683837253,0.677104935711323,0.7437441204139228,0.4542605581256528,0.3086054346799332,0.2015548333651947,0.141631086384612,0.1479178098896409
0.1719197707736389,0.5524949676872548,0.7514398302515913,0.6313049137650504,0.1789846957820082,0.6864371630029035,0.7571025399811853,0.4616226433865592,0.3124783525929658,0.2062703116038998,0.1484883771078622,0.1575513688189744
0.176168362809999,0.5533425150969382,0.748787511367081,0.6284846512636946,0.1826241134751773,0.6850891746163418,0.7618062088428974,0.4667462567775954,0.3157845020309204,0.2089785254572102,0.1526286281105792,0.1628559234193037
0.1678687876692026,0.5431719461807394,0.7478781448923916,0.6382470983837727,0.179264650989175,0.6794898382413936,0.757008466603951,0.4635626523404467,0.3133285053055827,0.2058561141910406,0.149092163712425,0.1584659471983416
0.1565062740835885,0.5312003390189637,0.7480297059715065,0.6506128647358715,0.1737588652482269,0.6736831190377436,0.7454374412041392,0.4538128637516788,0.3082905633048899,0.2007901612183776,0.1432268081252426,0.1498689104322907
0.1598656259262919,0.5387223222799024,0.7508335859351319,0.6448638680984923,0.173665546845838,0.6793861468270428,0.7480714957666981,0.4553549221509227,0.3099908687301237,0.2036576817689415,0.1457713373873291,0.1538320834095482
0.1735006422290287,0.5583218561288271,0.7544710518338891,0.6273999349170192,0.1778648749533408,0.6914143508917462,0.7603010348071496,0.4654529174750038,0.3172958846311282,0.2127063021729433,0.1560357096648984,0.1667581245046034
0.181899021835787,0.5660557262421867,0.7534859048196424,0.618830675778284,0.1824374766703994,0.694525093322273,0.7696142991533397,0.4729144903745709,0.3229950565194118,0.218791818008029,0.1633242765342649,0.1739528077556246
0.1791324967888548,0.564042801144189,0.7540921491361019,0.6214339950103048,0.1807577454273983,0.6939029448361675,0.7642521166509877,0.4705765308660399,0.3238452092320287,0.2186643726502262,0.1628067451589252,0.1713310164014389
0.1712281395119059,0.5676448776353427,0.7628069111852077,0.6238203709729906,0.17170586039567,0.7016798009124845,0.7513640639698964,0.4659006118489777,0.3223968009068296,0.2168482763015357,0.1594859188338293,0.1668190963965612
0.1784408655271218,0.5841720521241656,0.7690209154289179,0.6114546046208916,0.1712392683837253,0.7140190792202405,0.7556914393226717,0.4689847286474656,0.3248842847696716,0.2192060154208883,0.1624617242420322,0.1696238034266203
0.1917794684319731,0.6052547939400359,0.7738708699605941,0.5933398416314134,0.1745987308697275,0.7276026545002074,0.7676387582314205,0.4789334925135551,0.3316540193331024,0.2255464219715796,0.1698796739552335,0.1794402780318273
0.1968184961960281,0.6124589469223434,0.775234919672628,0.5869400151860289,0.1760918253079507,0.7321650767316465,0.7723424270931326,0.4840073620852608,0.335243553008596,0.2293697827056649,0.175270625781688,0.185537467227608
0.1869380495998419,0.6010170568916197,0.7746286753561686,0.5982210651914525,0.171799178798059,0.726047283284944,0.7684854186265285,0.4783365666815898,0.3331968890708146,0.2270757662652138,0.1704403329451848,0.1795012499237851
0.1762671672759608,0.591905922237525,0.7762958472264323,0.6087428137542032,0.1657334826427771,0.7228328494400663,0.754656632173095,0.4716211510719793,0.329418432570295,0.2225514560632129,0.1645318497433907,0.170660325589903
0.1801205414484734,0.597097150121835,0.7770536526220067,0.6039700618288317,0.1670399402762225,0.7258399004562421,0.7524929444967074,0.4708252499626921,0.3287257155451998,0.2223921493659593,0.163669297451158,0.1708432412657765
0.1951388202746764,0.6106579086767665,0.775234919672628,0.5886755613407094,0.1753452780888391,0.7312318540024886,0.761241768579492,0.4774909217529722,0.3321578135331717,0.2271076276046645,0.1704834605597964,0.179867081275532
0.1981029542535323,0.6134124377582371,0.7749317975143982,0.5856383555700184,0.1768383725270623,0.7323724595603484,0.7717779868297271,0.4798288812615033,0.3337951446833969,0.2292423373478621,0.1737611592702808,0.1838912261447473
0.1858512004742614,0.59052865769679,0.7679599878751138,0.6041870050981669,0.1753452780888391,0.7164039817503111,0.7694261523988711,0.4746057802318063,0.3295758682578167,0.2244949977697062,0.1691033768922241,0.176391683433937
0.1736982511609524,0.5662676130946075,0.7599272506820249,0.6231695411649854,0.1745987308697275,0.6990875155537122,0.7603951081843837,0.4681390837188479,0.3253880789697408,0.220002548907156,0.1632380213050416,0.1687092250472532
0.1759707538780753,0.5622417628986119,0.755304637769021,0.6240373142423256,0.1785181037700634,0.6939029448361675,0.7603010348071496,0.4667462567775954,0.3256714632072798,0.2195246288153954,0.1628930003881485,0.1698067191024937
0.1842703290188716,0.5683864816188154,0.7534101242800849,0.6163358281809307,0.1836506159014558,0.6955620074657819,0.7694261523988711,0.4724667960005969,0.3268050001574357,0.2220416746320015,0.1669038685470306,0.1756600207304432
0.18683924513388,0.5630893103082953,0.747575022734162,0.617637487796941,0.1884098544232922,0.6890294483616757,0.7742238946378174,0.4745062925931453,0.3262697188198621,0.2215318932007901,0.1671195066200888,0.1779159807328821
0.1741922734907618,0.5369212840343256,0.7385571385268263,0.6380301551144376,0.1879432624113475,0.6700539195354624,0.7653809971777987,0.4649554792816992,0.3187757800938317,0.2142675078060281,0.1575883037909173,0.1675507591000548
0.1610512795178342,0.5180633541688738,0.7351470142467414,0.6548432584879054,0.1838372527062337,0.6584404811281626,0.7461900282220131,0.4510769536885042,0.3092036902925155,0.2051870260625756,0.1466338896795618,0.1556002682763246
0.1641142179626519,0.5247377900201293,0.7375719915125797,0.6497450916585312,0.1838372527062337,0.6634176690170054,0.7379115710253998,0.4461523155747898,0.3068736421171951,0.2034346523927866,0.1450812955535429,0.1541369428693372
0.1765635806738464,0.5389342091323233,0.7381024552894817,0.6356437791517519,0.1893430384471818,0.6707797594359187,0.7474129821260583,0.4514251604238173,0.3099908687301237,0.2066207863378576,0.1501272264631043,0.1624900920675568
0.1783420610611599,0.5413709079351625,0.7385571385268263,0.6334743464584011,0.1899962672639044,0.6722314392368313,0.7510818438381938,0.4522708053524349,0.3099908687301237,0.2065570636589562,0.1514210549014534,0.1633436985549661
0.1670783519415077,0.5300349613306494,0.739011821764171,0.64540622627183,0.1843971631205674,0.6669431771049358,0.7380997177798683,0.445505645923494,0.3060864636795869,0.2027018415854202,0.1467632725233967,0.1571245655752698
0.1563086651516648,0.5196525055620298,0.7399211882388603,0.6565788046425859,0.1787047405748414,0.6624844462878474,0.7206961429915334,0.4356563696960653,0.3008595988538682,0.1978907793283629,0.1391296847371372,0.1481616974574721
0.1572967098112834,0.5257972242822333,0.7435586541376175,0.6529992406985573,0.1769316909294513,0.6679800912484446,0.7273753527751646,0.4375466348306223,0.3012059573664158,0.1985917287962786,0.1401647474878164,0.1493201634046704
0.160458452722063,0.5426422290496874,0.7531827826614126,0.6425859637704741,0.1725457260171706,0.6828079635006222,0.7518344308560678,0.4470974481420683,0.3063698479171258,0.2026381189065188,0.1468064001380083,0.1544418023291263
0.1590751901985969,0.5528127979658862,0.7615186420127311,0.638138626749105,0.1667599850690556,0.6934881791787639,0.7673565380997177,0.4536636322936875,0.3101797915551497,0.2062703116038998,0.1506016302238323,0.1584659471983416
0.1484043078747159,0.5467740226718932,0.7653834495301607,0.647033300791843,0.1592945128779395,0.6932807963500621,0.7567262464722484,0.4503307963985475,0.3094241002550458,0.2050914420442235,0.1480139733471341,0.1539540271934638
0.1416856041893093,0.5393579828371649,0.7652318884510457,0.6546263152185704,0.1562150055991041,0.6895479054334301,0.7363123236124177,0.4419738347510322,0.3056141566170219,0.2015229720257439,0.1443481261051451,0.1483446131333455
0.1524552909791522,0.5541900625066214,0.7675810851773265,0.6410673608851286,0.1598544232922732,0.6983616756532559,0.732173095014111,0.4430184549569716,0.3070940520797254,0.2034665137322373,0.1475826972010178,0.152612645570392
0.1678687876692026,0.5748490306176501,0.7705365262200667,0.6219763531836424,0.1653602090332213,0.7104935711323103,0.742991533396049,0.4500820773018952,0.3113133285053056,0.2078633785764353,0.1525423728813559,0.1612096823364429
0.1727102065013338,0.5817353533213263,0.7716732343134283,0.615793470007593,0.1669466218738335,0.714641227706346,0.7505174035747884,0.4552554345122619,0.3140841966056866,0.2109220671637035,0.1559063268210635,0.1648679958539113
0.1650034581563086,0.571141010700286,0.7700818429827221,0.6254474454930036,0.1642403882045539,0.7083160514309416,0.7408278457196613,0.4506292593145301,0.3116281998803489,0.2085006053654495,0.1521542243498512,0.1596853850374977
0.1602608437901393,0.5610763852102977,0.7665959381630798,0.633257403189066,0.164147069802165,0.7010576524263791,0.7337723424270931,0.4454559021041635,0.3086684089549419,0.2046135219524628,0.1465045068357269,0.1531004207060545
0.1655962849520798,0.567750821061553,0.7672021824795392,0.6268575767436815,0.1662933930571108,0.7046868519286603,0.7393226716839134,0.4491369447346168,0.3115337384678359,0.2065570636589562,0.1493509294000949,0.155783183952198
0.1788360833909692,0.5865028075007944,0.7705365262200667,0.6100444733702136,0.1704927211646136,0.7161965989216093,0.751552210724365,0.4571954434661493,0.3164457319185113,0.2114637099343656,0.1560357096648984,0.1647460520699957
0.1800217369825116,0.5917999788113147,0.7733404061836922,0.6066818526955201,0.1693729003359462,0.7206553297386976,0.7600188146754467,0.4619708501218724,0.3198463427689789,0.2144268145032817,0.1594427912192176,0.1689531126150844
0.1754767315482659,0.5867146943532152,0.7731888451045772,0.6117800195248941,0.1673198954833893,0.7181667357942763,0.753151458137347,0.4598318658906631,0.3184923958562927,0.2125151341362391,0.1572001552594126,0.1654777147734894
0.1682640055330501,0.5820531835999576,0.775386480751743,0.6181798459702788,0.1624673385591639,0.7173372044794691,0.7433678269049858,0.4543600457643137,0.3161938348184767,0.2099980883196329,0.1537499460904817,0.1602951039570758
0.1759707538780753,0.5866087509270049,0.77280994240679,0.6115630762555592,0.1677864874953341,0.7177519701368726,0.7447789275634995,0.4557528727055663,0.3174533203186498,0.2113999872554642,0.1549575192996075,0.1623681482836412
0.1870368540658037,0.5956139421548893,0.7706880872991816,0.6008243844234732,0.1743187756625606,0.7207590211530486,0.7551269990592662,0.4625180321345073,0.321389212506691,0.215828713439113,0.1606072368137318,0.1699896347783672
0.186147613872147,0.5946604513189956,0.7706880872991816,0.6019091007701486,0.1738521836506159,0.7202405640812941,0.7569143932267167,0.4642093219917425,0.3232469536194465,0.2182501752373669,0.163669297451158,0.17352600451192
0.1723149886374864,0.5768619557156478,0.7685662321915733,0.6186137325089489,0.1686263531168346,0.7101824968892577,0.7451552210724364,0.4562005670795404,0.3182404987562581,0.213184222264704,0.1585371113123733,0.165904518017194
0.1619405197114909,0.5564148744570399,0.7618975447105184,0.6347760060744115,0.1677864874953341,0.6955620074657819,0.7324553151458137,0.4472964234193901,0.3118486098428792,0.2057923915121391,0.1493078017854832,0.1564538747637339
0.1638178045647663,0.5534484585231485,0.758411639890876,0.6352098926130817,0.1708659947741694,0.6917254251347988,0.7357478833490122,0.4463015470327812,0.3085739475424289,0.2031479003377302,0.1467201449087851,0.1534052801658435
0.1737970556269143,0.5692340290284986,0.7619733252500758,0.6216509382796399,0.1733855916386711,0.7018871837411863,0.7458137347130761,0.4505297716758692,0.311155892817784,0.2064296183011534,0.1511622892137836,0.1587098347661727
0.1795277146527023,0.5667973302256595,0.755835101545923,0.6196984488556242,0.1799178798058977,0.69649523019494,0.7522107243650046,0.453166194100383,0.3128247111055134,0.2079271012553367,0.1534911804028119,0.1622462044997256
0.1658926983499654,0.5438076067380019,0.7498484389208852,0.6390063998264455,0.1771183277342292,0.6811489008710079,0.7437441204139228,0.4470974481420683,0.3091092288800025,0.2039762951634486,0.1469357829818433,0.1556612401682824
0.1555182294239699,0.5317300561500158,0.7491664140648681,0.6508298080052066,0.1726390444195595,0.6747200331812526,0.7319849482596424,0.4407799830871015,0.3050788752794484,0.199866182374307,0.141286065467719,0.1485885007011767
0.1635213911668807,0.5363915669032736,0.7464383146408002,0.6441045666558195,0.1780515117581187,0.6751347988386561,0.7351834430856068,0.4430184549569716,0.3053937466544916,0.2008857452367297,0.1427524043645146,0.1509054325955734
0.1782432565951981,0.5428541159021082,0.7396938466201879,0.6327150450157284,0.1892497200447928,0.6737868104520947,0.7500470366886172,0.4517236233398001,0.3092981517050285,0.2050277193653221,0.1491352913270367,0.160538991524907
0.1776504297994269,0.5395698696895858,0.7377993331312519,0.6347760060744115,0.1900895856662934,0.6707797594359187,0.7563499529633114,0.4552554345122619,0.3119745583928965,0.2067482316956605,0.1518954586621814,0.1633436985549661
0.1648058492243849,0.5251615637249708,0.7373446498939072,0.6490942618505261,0.1843038447181784,0.6635213604313563,0.7446848541862652,0.4474456548773814,0.3072829749047515,0.2016504173835468,0.1452106783973778,0.155783183952198
0.1557158383558936,0.5164742027757177,0.7381782358290391,0.658639765701269,0.179451287793953,0.6597884695147243,0.7301975540921919,0.4377456101079441,0.3017412387039894,0.1959472376218696,0.1382671324449045,0.1471861471861472
0.1546289892303132,0.5235724123318147,0.7440133373749622,0.6554940882959106,0.1754385964912281,0.6672542513479883,0.7309501411100658,0.4372481719146396,0.3003243175162946,0.1955649015484611,0.1371458144650019,0.1449911590756661
0.1648058492243849,0.5361796800508527,0.7452258260078811,0.6435622084824818,0.179451287793953,0.674305267523849,0.7472248353715898,0.4449584639108591,0.3046380553543877,0.199420123621997,0.1427092767499029,0.1513932077312359
0.1631261733030332,0.5408411908041105,0.7499242194604426,0.6420436055971364,0.1757185516983949,0.6798009124844462,0.7561618062088429,0.4507784907725216,0.3096445102175761,0.2028611482826738,0.1466770172941734,0.155783183952198
0.1493923525343345,0.5342726983790655,0.7556835404668082,0.6528907690638898,0.1657334826427771,0.6804230609705517,0.7496707431796802,0.4471969357807292,0.307912717654838,0.2011724972917861,0.1439168499590288,0.1510883482714468
0.1409939729275763,0.5382985485750609,0.7650045468323735,0.6554940882959106,0.1560283687943262,0.6888220655329739,0.7348071495766698,0.4404815201711187,0.3046380553543877,0.1980182246861658,0.1402941303316513,0.1451131028595817
0.1522576820472285,0.5581099692764063,0.7705365262200667,0.6392233430957804,0.1579880552444942,0.7023019493985898,0.7282220131702728,0.4399840819778143,0.3062438993671086,0.2002166571082648,0.1433130633544659,0.1485885007011767
0.1666831340776603,0.5823710138785888,0.7768263110033343,0.618830675778284,0.1608809257185517,0.7184778100373289,0.7366886171213546,0.4490374570959559,0.3116911741553576,0.2060472822277448,0.1512485444430068,0.1582220596305103
0.1724137931034483,0.5888335628774234,0.7770536526220067,0.6124308493328995,0.1634005225830534,0.7217959352965575,0.7392285983066792,0.4519723424364523,0.3138952737806606,0.2082775759892945,0.1541812222365981,0.1627339796353881
0.1649046536903468,0.5776035596991206,0.7748560169748409,0.6221932964529775,0.1612541993281075,0.7147449191206968,0.7295390404515522,0.4454559021041635,0.3110299442677666,0.2053463327598292,0.1491352913270367,0.1563319309798183
0.1559134472878174,0.570081576438182,0.7762958472264323,0.6310879704957154,0.1561216871967152,0.7121526337619246,0.7228598306679209,0.440730239267771,0.3080386662048553,0.2028930096221245,0.1451244231681545,0.1509664044875312
0.1645094358264993,0.5806759190592222,0.7773567747802365,0.6208916368369671,0.1594811496827174,0.7179593529655744,0.7323612417685795,0.4460030841167985,0.3118171227053749,0.2063658956222519,0.1493509294000949,0.155783183952198
0.1805157593123209,0.5957198855810996,0.7758411639890876,0.6044039483675019,0.1680664427025009,0.7243882206553298,0.7482596425211664,0.457493906382132,0.3181145502062407,0.2124195501178869,0.1576745590201406,0.1653557709895738
0.1848631558146428,0.5959317724335204,0.7725826007881176,0.6019091007701486,0.1720791340052258,0.7222107009539611,0.7576669802445908,0.4617718748445505,0.3199408041814919,0.2150003186133945,0.161297278647518,0.1699286628864093
0.1776504297994269,0.5851255429600593,0.7703849651409518,0.6114546046208916,0.1700261291526689,0.7153670676068022,0.7479774223894637,0.4551062030542706,0.3166661418810416,0.2117186006499713,0.1569845171863544,0.1652338272056582
0.1728090109672957,0.5803580887805911,0.7706123067596242,0.6165527714502658,0.1675998506905562,0.7131895479054335,0.7380056444026339,0.4495846391085908,0.3153436821058598,0.2097113362645765,0.1539224565489282,0.1616364855801475
0.1793301057207786,0.5886216760250026,0.7715974537738709,0.6086343421195357,0.1701194475550578,0.7179593529655744,0.7378174976481655,0.4526190120877481,0.3164457319185113,0.2122283820811827,0.1566826238840729,0.1660874336930675
0.1886177255211935,0.6010170568916197,0.7732646256441346,0.5972448204794446,0.1733855916386711,0.7252177519701369,0.7466603951081843,0.4591354524200368,0.3197518813564659,0.2162429108519722,0.1618579376374692,0.1724894823486372
0.1841715245529098,0.5943426210403644,0.7719763564716581,0.6031022887514915,0.1721724524076148,0.7209664039817504,0.7525870178739417,0.4617221310252201,0.3213262382316824,0.2170075829987892,0.1618579376374692,0.1734650326199622
0.166189111747851,0.5696578027333403,0.7681115489542285,0.6255559171276711,0.166013437849944,0.7063459145582747,0.7433678269049858,0.4542108143063225,0.3155326049308857,0.2106353151086471,0.1537068184758701,0.1632217547710505
0.1548265981622369,0.5489988346223117,0.7620491057896331,0.6424774921358064,0.1644270250093318,0.6920364993778515,0.7347130761994355,0.4457046212008158,0.3085424604049246,0.2027018415854202,0.1446931470220382,0.1512102920553625
0.1568026874814741,0.5504820425892571,0.7616702030918461,0.6405250027117908,0.1655468458379992,0.6924512650352551,0.7365004703668863,0.4431179425956325,0.3072514877672471,0.2014911106862932,0.1422780006037866,0.1502957136759954
0.1653986760201561,0.565102235406293,0.765459230069718,0.6283761796290269,0.1672265770810004,0.7023019493985898,0.7505174035747884,0.4483410436253295,0.3104316886551844,0.2052507487414771,0.1466770172941734,0.1576123407109322
0.1652998715541942,0.5663735565208178,0.7664443770839648,0.6277253498210218,0.1666666666666666,0.7035462463708004,0.759360301034807,0.4514749042431478,0.3116911741553576,0.2067163703562098,0.1494803122439298,0.1596244131455399
0.1572967098112834,0.5584277995550375,0.7668990603213096,0.6361861373250896,0.1625606569615528,0.7000207382828701,0.7508936970837252,0.446948216684077,0.3088888189174722,0.2033072070349837,0.1452538060119895,0.1548686055728309
0.1488983302045252,0.5510117597203094,0.7680357684146711,0.6446469248291572,0.1578947368421053,0.6971173786810452,0.7440263405456254,0.4402328010744665,0.3064328221921345,0.2002803797871662,0.1414154483115539,0.1495640509725016
0.1510720284556862,0.5545078927852527,0.7688693543498031,0.6417181906931337,0.15836132885405,0.6993985897967647,0.7524929444967074,0.4438143560662587,0.3089203060549766,0.2035939590900401,0.1452106783973778,0.1527345893543076
0.1623357375753384,0.564572518275241,0.7674295240982116,0.6303286690530426,0.1646136618141097,0.7033388635420988,0.7669802445907808,0.4518728547977914,0.3138008123681476,0.2094245842095201,0.1524992452667443,0.1626730077434303
0.1607548661199486,0.5607585549316665,0.7658381327675053,0.6331489315543986,0.1648002986188876,0.7004355039402739,0.7704609595484477,0.4545092772223051,0.3155011177933814,0.2101255336774358,0.1536205632466468,0.1643192488262911
0.1475150676810591,0.5446551541476851,0.7645498635950289,0.6486603753118558,0.1593878312803285,0.691621733720448,0.7559736594543743,0.4471969357807292,0.3104631757926887,0.2046772446313643,0.1471514210549014,0.1551734650326199
0.1388202746764154,0.5325776035596991,0.7625795695665353,0.6596160104132769,0.156494960806271,0.6843633347158855,0.7398871119473189,0.4385415112172313,0.3039768254667968,0.1972854138787994,0.1381808772156812,0.1444424120480458
0.1473174587491354,0.5387223222799024,0.7604577144589271,0.6518060527172145,0.1618141097424412,0.6859187059311489,0.7415804327375352,0.4386409988558921,0.3039138511917881,0.1972535525393487,0.137965239142623,0.1452350466434973
0.1531469222408852,0.5534484585231485,0.7664443770839648,0.6410673608851286,0.1608809257185517,0.6972210700953962,0.7566321730950141,0.4473461672387205,0.3102742529676627,0.2040718791818008,0.1459869754603873,0.1547466617889153
0.1574943187432071,0.5563089310308296,0.7652318884510457,0.6371623820370973,0.1636804777902202,0.6978432185815014,0.7566321730950141,0.4510769536885042,0.313737838093139,0.2075447651819282,0.1502997369215508,0.1595024693616243
0.1530481177749234,0.5437016633117914,0.7596241285237951,0.6461655277145026,0.1649869354236655,0.6877851513894649,0.7349952963311382,0.4435158931502761,0.3086684089549419,0.2030841776588287,0.1450381679389313,0.1526736174623498
0.1496887659322201,0.5354380760673799,0.7563655653228252,0.6521314676212171,0.1654535274356103,0.6815636665284115,0.7171213546566322,0.4379445853852658,0.304858465316918,0.1995157076403492,0.1399922370293699,0.14627156880678
0.1621381286434147,0.5470918529505243,0.7550772961503487,0.6394402863651154,0.1720791340052258,0.6863334715885525,0.725211665098777,0.4442123066209024,0.3092351774300199,0.2033072070349837,0.1452538060119895,0.153893055301506
0.1785396699930836,0.5649962919800825,0.7552288572294634,0.6212170517409696,0.1797312430011198,0.6952509332227292,0.7374412041392286,0.4530667064617221,0.3155326049308857,0.2099662269801822,0.1536636908612584,0.1654167428815316
0.1836775022231005,0.5682805381926052,0.7537132464383147,0.6167697147196008,0.183090705487122,0.6957693902944837,0.7390404515522107,0.4579416007561061,0.318712805818823,0.2136621423564646,0.1578901970931988,0.1701115785622828
0.1748839047524948,0.558004025850196,0.7531070021218551,0.626749105109014,0.179357969391564,0.6903774367482374,0.7259642521166509,0.4515743918818086,0.3163827576435026,0.2114637099343656,0.1551300297580541,0.1663313212608987
0.1699436814544017,0.5486810043436804,0.7502273416186723,0.6343421195357414,0.1787980589772303,0.683844877644131,0.7135465663217309,0.4462518032134507,0.3125098397304701,0.2074173198241254,0.150515374994609,0.1604170477409914
0.1818002173698251,0.5623477063248224,0.7508335859351319,0.6207831652022996,0.1840238895110116,0.6908958938199917,0.7183443085606773,0.4522210615331045,0.3155640920683901,0.2110813738609571,0.1551300297580541,0.1671239558563502
0.1982017587194941,0.5825829007310096,0.7528038799636254,0.601366742596811,0.1905561776782381,0.702198257984239,0.7355597365945437,0.4607769984579416,0.3222708523568122,0.2179634231823106,0.1630223832319834,0.1775501493811353
0.2002766525046932,0.5901048839919483,0.7565929069414974,0.5963770474021043,0.1892497200447928,0.7084197428452924,0.7413922859830668,0.4624185444958464,0.3217985452942473,0.2181545912190148,0.164488722128779,0.1782208401926711
0.1841715245529098,0.58004025850196,0.7616702030918461,0.6104783599088838,0.1784247853676745,0.7069680630443799,0.7351834430856068,0.4559021041635576,0.3187757800938317,0.2140444784298732,0.1591840255315478,0.1704164380220718
0.1670783519415077,0.5765441254370166,0.7723552591694453,0.6215424666449724,0.1638671145949981,0.712567399419328,0.725211665098777,0.4464507784907725,0.313171069618061,0.2085324667049002,0.1527580109544141,0.1611487104444851
0.1620393241774528,0.5998516792033054,0.792891785389512,0.6124308493328995,0.148842851810377,0.7379717959352966,0.7332079021636876,0.4419240909317017,0.3132340438930697,0.2091696934939144,0.1518523310475698,0.1573074812511432
0.1494911570002964,0.6403220680156796,0.8314640800242498,0.5986549517301225,0.1191675998506905,0.7842181667357944,0.750423330197554,0.4360045764313784,0.3131080953430524,0.2114637099343656,0.1524561176521326,0.1530394488140967
0.1287422191483055,0.6526115054560864,0.8560927553804183,0.6037531185594966,0.0941582680104516,0.8070302778929904,0.7629350893697084,0.4276476147838631,0.3103372272426714,0.2123876887784362,0.1498253331608229,0.1442594963721724
0.1275565655567631,0.6402161245894691,0.8482873598060018,0.6106953031782189,0.0984509145203434,0.7956242223143923,0.7842897460018815,0.4474456548773814,0.3321893006706761,0.2377811763206525,0.1702678224867382,0.1549905493567465
0.1821954352336725,0.6436063142282021,0.8087299181570173,0.5789131142206313,0.1485628966032101,0.7703235172127748,0.8268109125117591,0.5178829030492962,0.4064989451808936,0.3207162429108519,0.2510458446543321,0.2246814218645204
0.2955241576919277,0.6547303739802944,0.7296908153986057,0.5110098709187547,0.2507465472191116,0.7215885524678557,0.8512699905926622,0.6132915485250957,0.5191284360338803,0.4565411329892309,0.3842239185750636,0.3490640814584477
0.4546981523564865,0.6806865134018434,0.6263261594422552,0.4103481939472828,0.3895110115714819,0.6636250518457071,0.8215428033866415,0.7174053623837239,0.660631631978337,0.6271267444083349,0.5503514900590849,0.5121029205536248
0.6205908507064519,0.7264540735247377,0.531752046074568,0.2959106193730339,0.5261291526689064,0.6213189547905433,0.747318908748824,0.8174401830572552,0.8023867250228283,0.795736952781495,0.7178160175960667,0.681482836412414
0.7605967789744097,0.787159656743299,0.4677932706880873,0.1879813428788372,0.631578947368421,0.6072169224388221,0.6300094073377234,0.8648460428791722,0.8800969803835135,0.8963869241062895,0.8341311942036487,0.8162916895311263
0.8949708526825413,0.8232863650810466,0.3905729008790543,0.0957804534114329,0.7426278462112729,0.5721692243882207,0.4668861712135466,0.8592249912948317,0.9037753077867692,0.930669725355254,0.9017984215293052,0.9240899945125298
0.9460527615848237,0.7897022989723487,0.3273719308881479,0.0848248183100119,0.8057110862262039,0.512442969722107,0.364346190028222,0.8059991046112522,0.870587864857206,0.8872427196839356,0.8795014447750896,0.9399426864215598
0.835194150775615,0.6718932090263798,0.3280539557441648,0.2060961058683154,0.7528928704740575,0.4552053090004148,0.2894637817497648,0.6127443665124608,0.6749582795428068,0.6998980437137579,0.7133307456764566,0.8041582830315226
0.6130817112933505,0.5936010170568916,0.4424825704759018,0.3680442564269444,0.5775475923852184,0.495230194939859,0.1842897460018814,0.3203999403074168,0.3582291633867565,0.3968011215191487,0.437357139776599,0.5547832449240901
0.3805948028850904,0.6064201716283504,0.6299636253410124,0.4890986007159128,0.3522769690182904,0.6298216507673164,0.1197554092191909,0.1027209869173754,0.1003180200887937,0.1176639265914739,0.1613835338767413,0.2854094262544967
0.2907815433257583,0.6022883780061448,0.6958926947559867,0.540514155548324,0.2693169092945129,0.6728535877229366,0.1563499529633114,0.095906083669104,0.0591328442331307,0.0458484674695724,0.0700823737439082,0.1785256996524602
0.2802094654678392,0.6133064943320267,0.7119581691421644,0.5407310988176591,0.2543859649122807,0.6892368311903775,0.3171213546566321,0.2301646520419838,0.1582858402342643,0.1147645447014592,0.1115280113856902,0.1912078531796841
0.2511609524750519,0.6314228202140056,0.7470445589572599,0.5473478685323788,0.2191116088092572,0.7221070095396102,0.5055503292568203,0.357160622792618,0.2496930004093328,0.1783279169056267,0.1517229482037348,0.200109749405524
0.2148997134670487,0.6158491365610763,0.763716277659897,0.5752250786419351,0.1916759985069056,0.7258399004562421,0.6274694261523989,0.4301845495697159,0.2991278062911301,0.205696807493787,0.1604347263552853,0.1849887201999878
0.1997826301748839,0.5812056361902743,0.7506062443164596,0.6012582709621433,0.1926091825307951,0.6999170468685194,0.6726246472248354,0.4520220862557827,0.3140841966056866,0.2109220671637035,0.1573726657178591,0.1743186391073715
0.1866416362019563,0.5629833668820848,0.7476508032737194,0.6177459594316087,0.1883165360209033,0.6890294483616757,0.6904045155221072,0.4504800278565388,0.3144305551182342,0.2072261517874211,0.1504291197653857,0.163709529906713
0.1833810888252149,0.561182328636508,0.7489390724461958,0.6205662219329646,0.1859835759611795,0.6890294483616757,0.716274694261524,0.455155946873601,0.316036399130955,0.2063340342828012,0.1488765256393669,0.1621852326077678
0.1818002173698251,0.5572624218667231,0.7472719005759322,0.6233864844343204,0.1861702127659574,0.6859187059311489,0.739981185324553,0.4625677759538377,0.3190591643313706,0.2066526476773083,0.148747142795532,0.1629778672032193
0.1802193459144353,0.5492107214747324,0.7427250682024857,0.6283761796290269,0.1882232176185143,0.6789713811696392,0.7448730009407337,0.4641098343530816,0.3187442929563274,0.2045816606130121,0.145426316470436,0.1583440034144259
0.1658926983499654,0.5299290179044389,0.7399211882388603,0.6460570560798351,0.183184023889511,0.6675653255910411,0.7335841956726247,0.4561508232602099,0.3133285053055827,0.197221691199898,0.1355500927243714,0.1450521309676239
0.1563086651516648,0.5190168450047674,0.7393907244619582,0.6569042195465885,0.1790780141843971,0.661862297801742,0.7312323612417686,0.4533154255583743,0.3099593815926195,0.1923150449244886,0.1285634191572864,0.1360282909578684
0.1617429107795672,0.528657696789914,0.7421946044255836,0.6490942618505261,0.1798245614035088,0.6684985483201991,0.7407337723424271,0.4575933940207929,0.313076608205548,0.1939718345759255,0.129555354293354,0.1378574477166026
0.1712281395119059,0.5399936433944273,0.742952409821158,0.6380301551144376,0.1839305711086226,0.6745126503525508,0.7528692380056443,0.4648062478237079,0.3177052174186845,0.1968393551264895,0.1334368396084012,0.1444424120480458
0.1654974804861179,0.5333192075431719,0.7426492876629281,0.6446469248291572,0.181317655841732,0.6710908336789714,0.7610536218250235,0.4660000994876386,0.3182719858937624,0.1958197922640668,0.1320136283262173,0.1432229742088897
0.1448473471000889,0.5105413709079352,0.7421946044255836,0.667534439744007,0.1718924972004479,0.6596847781003733,0.7541862652869238,0.4584390389494105,0.3114392770553229,0.1883323774931498,0.121145469444085,0.1298701298701298
0.1327932022527418,0.4940141964191122,0.7396180660806305,0.6826119969627943,0.1677864874953341,0.6498340937370386,0.7498588899341486,0.451275928965826,0.3052048238294657,0.1811317147772892,0.1115711390003019,0.118102554722273
0.1343740737081316,0.4971924992054242,0.7406789936344347,0.6802256210001084,0.167879805897723,0.6520116134384073,0.7602069614299153,0.4531164502810526,0.3044806196668661,0.1802395972726693,0.1114848837710786,0.1181635266142308
0.1417844086552712,0.5046085390401525,0.7403000909366475,0.6723071916693785,0.1716125419932811,0.6554334301119867,0.7743179680150517,0.4583395513107496,0.3070310778047168,0.1827885044287261,0.1162289213783585,0.1243826595939272
0.1414879952573856,0.4996291980082635,0.7369657471961201,0.6750189825360667,0.1734789100410601,0.6506636250518457,0.7755409219190968,0.458488782768741,0.3076608205548034,0.182469891034219,0.116056410919912,0.1248704347295896
0.127655370022725,0.4822544761097573,0.7351470142467414,0.6915066710055321,0.1681597611048899,0.6409166321028619,0.7662276575729068,0.4517236233398001,0.3037879026417709,0.1772764927037532,0.1086815888213223,0.1167611730992012
0.1203438395415472,0.4767454179468164,0.7368899666565626,0.6983403839895866,0.1635871593878313,0.6394649523019494,0.7642521166509877,0.4499328458439038,0.3026228785541107,0.1748550309054992,0.1054038901108379,0.1104810682275471
0.1317063531271613,0.4916834410424832,0.7387844801454987,0.6844560147521422,0.1677864874953341,0.6480713396930735,0.7739416745061147,0.4564492861761926,0.3061809250920999,0.1778818581533167,0.1091559925820503,0.1143832693128467
0.1411915818595,0.5069392944167813,0.7424977265838133,0.6714394185920382,0.1699328107502799,0.658025715470759,0.7920978363123236,0.4655026612943342,0.3120690198054095,0.1832027018415854,0.1154094967007375,0.1223705871593195
0.1377334255508349,0.5101175972030935,0.7473476811154895,0.6716563618613732,0.1653602090332213,0.6628992119452509,0.7991533396048919,0.4685867780928219,0.3142731194307126,0.1855285796214873,0.1176090050459309,0.1241387720260959
0.1242960181800217,0.4949676872550058,0.74674143679903,0.6868423907148281,0.1593878312803285,0.6551223558689342,0.7912511759172154,0.4639108590757598,0.3110299442677666,0.1821512776397119,0.1125630741363695,0.1177367233705262
0.1216282975990514,0.4909418370590103,0.7459078508638981,0.6903134830241892,0.1586412840612169,0.6526337619245127,0.7862652869238006,0.4623190568571855,0.3092351774300199,0.1800165678965143,0.1097597791866132,0.1138954941771843
0.1304218950696571,0.5047144824663629,0.7490906335253107,0.678490074845428,0.1607876073161627,0.6614475321443385,0.7972718720602069,0.4681888275381784,0.3131080953430524,0.1837762059516982,0.1135981368870487,0.1190171331016401
0.1341764647762079,0.5145672211039305,0.7532585632009701,0.6714394185920382,0.1600410600970511,0.6691206968063045,0.8196613358419567,0.4810724767447644,0.3211688025441607,0.1896386924106289,0.1190322163281149,0.1252972379732943
0.1294338504100385,0.5146731645301408,0.7569718096392847,0.6739342661893915,0.1554684583799925,0.6718166735794276,0.8350893697083724,0.486793015967766,0.3239081835070374,0.1896705537500796,0.1186871954112218,0.1229803060788976
0.11836775022231,0.5015361796800508,0.7560624431645954,0.6867339190801606,0.150802538260545,0.6646619659892161,0.82793979303857,0.4811719643834253,0.3198463427689789,0.1850187981902759,0.1116142666149135,0.1143832693128467
0.1130323090603695,0.4970865557792138,0.7569718096392847,0.6919405575442021,0.1477230309817096,0.6632102861883037,0.8155221072436499,0.4775904093916331,0.3167920904310589,0.1820556936213598,0.1068271013930219,0.1087128833607706
0.1223199288607845,0.5038669350566797,0.7546983934525614,0.683371298405467,0.1535087719298246,0.6648693488179179,0.81862652869238,0.4814704272994081,0.3198148556314745,0.1842859873829095,0.1107948419372924,0.1136516066093531
0.1345716826400553,0.5128721262845639,0.7517429524098211,0.6719817767653758,0.1611608809257185,0.6672542513479883,0.8316086547507056,0.4902253395015669,0.3247268490821499,0.1883642388326005,0.1160995385345236,0.1218828120236571
0.1338800513783223,0.5097997669244623,0.7500757805395575,0.6739342661893915,0.1618141097424412,0.6646619659892161,0.8400752587017873,0.4952494652539422,0.3269939229824617,0.1891607723188683,0.117005218441368,0.1241997439180538
0.1242960181800217,0.4977222163364763,0.748787511367081,0.6854322594641501,0.1580813736468831,0.6579220240564081,0.8296331138287865,0.4920658608167935,0.3239396706445417,0.1841904033645574,0.1103635657911761,0.1153588195841717
0.1223199288607845,0.4940141964191122,0.7476508032737194,0.6884694652348411,0.1578947368421053,0.6552260472832849,0.8277516462841015,0.4910709844301846,0.3217355710192386,0.1811317147772892,0.105748911027731,0.1092006584964331
0.137634621084873,0.507363068121623,0.7454531676265536,0.6731749647467187,0.1664800298618887,0.6603069265864787,0.8409219190968956,0.5009700044769437,0.3265216159198967,0.1842859873829095,0.1101048001035062,0.1169440887750747
0.1512696373876099,0.5125542960059328,0.7387086996059412,0.6629786310879704,0.1771183277342292,0.6582330982994608,0.8592662276575729,0.5122121076456251,0.3321578135331717,0.1888740202638119,0.1159701556906887,0.1268825071641973
0.1522576820472285,0.4998410848606843,0.7288572294634738,0.6689445709946849,0.1835572974990668,0.6452716715055994,0.8645343367826904,0.5188280356165746,0.3353065272836046,0.189734276428981,0.1170914736705913,0.1290165233827205
0.1455389783618219,0.4828901366670197,0.7218854198241892,0.6814188089814514,0.1846771183277342,0.632206553297387,0.8585136406396989,0.5176341839526439,0.3335747347208666,0.1861339450710508,0.1124768189071462,0.1223705871593195
0.1423772354510424,0.4700709820955609,0.7150651712640195,0.689662653216184,0.1874766703994028,0.6212152633761925,0.8555032925682031,0.5196736805451923,0.3325986334582323,0.1832027018415854,0.1083796955190408,0.1175538076946527
0.1524552909791522,0.4679521135713529,0.705895725977569,0.685215316194815,0.1978350130645763,0.61395686437163,0.867450611476952,0.5272347410834204,0.3345193488459964,0.1832027018415854,0.1084659507482641,0.1190171331016401
0.1572967098112834,0.4681640004237736,0.7023340406183692,0.6825035253281267,0.202314296379246,0.6116756532559104,0.8761994355597365,0.5327563050291002,0.3361566799962215,0.1840310966673039,0.1097166515720015,0.1225535028351929
0.151170832921648,0.4588409789172581,0.7003637465898758,0.6906388979281918,0.2006345651362448,0.6057652426379095,0.8717779868297272,0.5308660398945431,0.3343619131584748,0.1812272987956413,0.1069564842368568,0.1210901774282056
0.1403023416658433,0.4377582371013878,0.6936192785692634,0.7073435296669921,0.1997013811123554,0.5907299875570303,0.8594543744120413,0.5262896085161418,0.3305834566579552,0.1755878417128656,0.0998835554405486,0.113041887689775
0.1430688667127754,0.4319313486598156,0.6873294937859958,0.7088621325523375,0.2048338932437477,0.5836789713811696,0.8564440263405457,0.5284285927473512,0.3304575081079379,0.1736124386669215,0.0971665157200155,0.1098103774160112
0.1567038830155123,0.4482466362962178,0.6885419824189148,0.6930252738908775,0.2105263157894737,0.5923890501866446,0.868673565380997,0.539620952096702,0.3376680625964294,0.1794430637864016,0.1043688273601587,0.1193219925614291
0.170437703784211,0.4625489988346222,0.688238860260685,0.6781646599414253,0.2171519223590892,0.5992326835338034,0.8828786453433679,0.5529522956772621,0.346043641172581,0.1871216465940228,0.1142019234916116,0.1326138650082312
0.1744886868886473,0.4613836211463077,0.6842982722036981,0.6764291137867449,0.2215378872713699,0.5960182496889257,0.8847601128880527,0.5572800079590111,0.35149091596083,0.1922194609061364,0.1195928753180661,0.1392598012316322
0.1709317261140203,0.4516368259349506,0.6800545619884814,0.6834797700401345,0.2224710712952594,0.5883450850269598,0.8698024459078081,0.5548425608118192,0.3528448628735162,0.1934620531447142,0.1195497477034545,0.1367599536613621
0.1716233573757534,0.449094183705901,0.6776295847226432,0.6843475431174748,0.2242441209406495,0.5854417254251348,0.8577610536218249,0.5548425608118192,0.3549545010863063,0.1972535525393487,0.1228705740285505,0.1390768855557588
0.1913842505681257,0.4690115478334569,0.676720218247954,0.6633040459919731,0.2342291899962672,0.5944628784736624,0.8627469426152399,0.5635477291946476,0.3644006423376051,0.2078633785764353,0.1372751973088368,0.1551734650326199
0.2174686295820571,0.492425045025956,0.6735374355865414,0.6370539104024298,0.2484135871593878,0.6037951057652426,0.867450611476952,0.573247773964085,0.3740671935514343,0.2199706875677053,0.1541380946219864,0.175416133162612
0.2161841715245529,0.4944379701239537,0.6758866323128221,0.6366200238637596,0.2464539007092198,0.606387391124015,0.8608654750705549,0.5725016166741282,0.3771844201643629,0.2272987956413687,0.162720489929702,0.1826108164136333
0.2045252445410532,0.4926369318783768,0.6836162473476811,0.643996095021152,0.2360955580440463,0.6108461219411033,0.847318908748824,0.5641943988459434,0.3754526276016247,0.2297521187790734,0.1646612325872256,0.1816962380342662
0.2046240490070151,0.5090581629409895,0.6952864504395271,0.6355353075170842,0.229003359462486,0.6268145997511406,0.8327375352775165,0.5539471720638711,0.3736578607638779,0.2330019754030459,0.1691033768922241,0.1834644229010426
0.2173698251160952,0.5409471342303209,0.7083207032434071,0.6122139060635644,0.227043673012318,0.651285773537951,0.8271872060206962,0.548724071034174,0.3751062690890772,0.2397565793665965,0.1788502177944538,0.1926711785866715
0.221124394822646,0.5647844051276618,0.7224916641406488,0.5980041219221174,0.2200447928331467,0.6726462048942348,0.8305738476011288,0.5479779137442173,0.3770584716143456,0.245873956541133,0.1876051235606159,0.2023047375160051
0.2102559035668412,0.5685983684712363,0.7335556229160352,0.6020175724048161,0.208100037327361,0.6821858150145168,0.8262464722483536,0.5392727453613889,0.373374476526339,0.2466704900274007,0.1888989519989649,0.2020608499481739
0.1963244738662187,0.5608644983578769,0.7387086996059412,0.6136240373142423,0.19839492347891,0.6818747407714641,0.8117591721542803,0.5241008804656022,0.3643061809250921,0.2419231504492449,0.1824729374218312,0.1909029937198951
0.1910878371702401,0.5671151605042907,0.7471961200363747,0.6132986224102397,0.1906494960806271,0.6906885109912899,0.7920978363123236,0.5094264537631199,0.3574734720866526,0.2383228190913146,0.1786777073360072,0.1844399731723675
0.2008694793004644,0.5892573365822649,0.7555319793876932,0.5964855190367719,0.1900895856662934,0.7072791372874326,0.779492003762935,0.5042033527334229,0.356560345099027,0.239820302045498,0.1814378746711519,0.1877324553380891
0.2090702499752989,0.6026062082847758,0.7587905425886632,0.5852044690313483,0.1920492721164614,0.7159892160929074,0.7757290686735653,0.5036064269014575,0.356560345099027,0.2431020200089211,0.1868288264976064,0.1936467288579964
0.2011658926983499,0.59847441466257,0.7618975447105184,0.5917127671114003,0.1863568495707353,0.7161965989216093,0.7707431796801505,0.4983833258717604,0.3537894769986461,0.2412540623207799,0.1851468495277526,0.1924272910188403
0.1843691334848335,0.5823710138785888,0.7632615944225523,0.6090682286582059,0.1775849197461739,0.7091455827457486,0.758513640639699,0.4891807192956275,0.3469882552977109,0.2351048238067928,0.1770819855953767,0.1832815072251692
0.1791324967888548,0.5747430871914396,0.7618217641709609,0.6159019416422605,0.1759985069055618,0.7044794690999585,0.7499529633113828,0.4825150475053475,0.3423911332220788,0.231345185751609,0.1720360546858153,0.1776720931650509
0.1922734907617824,0.5863968640745841,0.7600788117611398,0.6027768738474888,0.1832773422919,0.7089381999170468,0.7564440263405455,0.4859473710391484,0.3444692842973645,0.2340852609443701,0.175270625781688,0.1830376196573379
0.2039324177452821,0.597414980400466,0.7590178842073356,0.590628050764725,0.1894363568495707,0.7137080049771879,0.7639698965192849,0.4918171417201413,0.3476179980477975,0.2378767603390046,0.1806184499935308,0.1909029937198951
0.2007706748345025,0.5914821485326834,0.757199151257957,0.5955092743247641,0.1890630832400149,0.7094566569888014,0.7579492003762934,0.4885837934636622,0.345949179760068,0.2362199706875677,0.1798421529305214,0.1895006402048655
0.1878272897934987,0.5717766712575485,0.7530312215822976,0.6126477926022346,0.1855169839492348,0.6970136872666944,0.7384760112888051,0.4765457891856937,0.3370383198463428,0.2271076276046645,0.1690602492776124,0.1767575147856838
0.180416954846359,0.5548257230638839,0.7465898757199151,0.6254474454930036,0.1859835759611795,0.6843633347158855,0.7241768579492003,0.4654031736556733,0.3285682798576781,0.218791818008029,0.1594427912192176,0.167184927748308
0.1847643513486809,0.5554613836211462,0.7437102152167324,0.6227356546263152,0.1898096304591265,0.6826005806719204,0.7303857008466603,0.4670944635129085,0.3288201769577128,0.2186325113107755,0.1611247681890714,0.1686482531552954
0.1921746862958205,0.5644665748490305,0.7443922400727494,0.6139494522182449,0.1928891377379619,0.6874740771464123,0.7481655691439322,0.4759488633537283,0.3336377089958752,0.2244949977697062,0.1681114417561565,0.1760258520821901
0.1882225076573461,0.5583218561288271,0.7431039709002729,0.6192645623169541,0.1918626353116835,0.6836374948154292,0.7514581373471307,0.4779386161269462,0.33505463018357,0.2264704008156503,0.1690602492776124,0.1770623742454728
0.1789348878569311,0.5437016633117914,0.7397696271597454,0.6318472719383882,0.1895296752519597,0.6742015761094983,0.7431796801505174,0.47281500273591,0.3323152492206934,0.2229019307971707,0.1641437012118859,0.170660325589903
0.1744886868886473,0.5417946816400042,0.7417399211882388,0.6353183642477491,0.1861702127659574,0.6746163417669017,0.7400752587017875,0.4707257623240312,0.3308668408954942,0.2211495571273816,0.1622029585543623,0.166880068288519
0.185455982610414,0.5615001589151392,0.7474992421946044,0.6191560906822865,0.1878499440089585,0.6881999170468686,0.7496707431796802,0.4779883599462766,0.335432475833622,0.2255464219715796,0.1683702074438263,0.1735869764038778
0.1958304515364094,0.5760144083059644,0.7499242194604426,0.6061394945221824,0.1912094064949608,0.6969099958523434,0.7692380056444026,0.486693528329105,0.3424541074970875,0.2324603326323838,0.1761331780739207,0.1824279007377598
0.1904950103744689,0.5699756330119715,0.7496968778417702,0.6121054344288969,0.188783128032848,0.6939029448361675,0.7745061147695202,0.4888325125603144,0.3433987216222173,0.2331294207608488,0.1770819855953767,0.1825498445216755
0.1787372789250074,0.5596991206695623,0.751364049712034,0.6238203709729906,0.1822508398656215,0.6899626710908338,0.769802445907808,0.4839576182659305,0.3403444692842974,0.2297202574396227,0.171949799456592,0.1747454423510761
0.1746862958205711,0.5594872338171415,0.7542437102152167,0.6260982753010087,0.1786114221724524,0.6918291165491498,0.7699905926622765,0.4821170969507038,0.3395258037091848,0.2288600012744535,0.1698796739552335,0.1713919882933967
0.1827882620294437,0.5725182752410213,0.7574264928766293,0.6150341685649202,0.1803844718178425,0.7003318125259228,0.7839134524929444,0.4900263642242451,0.3438395415472779,0.2329382527241445,0.1753137533962996,0.1770623742454728
0.1892105523169647,0.5824769573047991,0.7596999090633525,0.606464909426185,0.1820642030608436,0.7067606802156783,0.8016933207902164,0.4995771775356912,0.3496961491230833,0.2382909577518639,0.1829904687971708,0.1856594110115237
0.1874320719296512,0.5744252569128084,0.7552288572294634,0.6114546046208916,0.1839305711086226,0.6998133554541683,0.8053621825023517,0.5007710291996219,0.3509871217607607,0.2394379659720895,0.1838098934747919,0.1856594110115237
0.1779468431973125,0.56171204576756,0.7534101242800849,0.6231695411649854,0.1806644270250093,0.6923475736209043,0.7953904045155221,0.4950504899766204,0.3468308196101892,0.235965079971962,0.1787208349506188,0.1781598683007134
0.1747851002865329,0.5608644983578769,0.7552288572294634,0.625338973858336,0.1780515117581187,0.6931771049357114,0.7946378174976481,0.4912699597075063,0.3434302087597217,0.2330019754030459,0.174321818260232,0.1739528077556246
0.181899021835787,0.5738955397817564,0.759093664746893,0.6148172252955851,0.1789846957820082,0.702198257984239,0.8083725305738475,0.4961945978212207,0.3465789225101546,0.2355508825591027,0.1773407512830465,0.1777940369489665
0.1858512004742614,0.5868206377794257,0.7653076689906033,0.6060310228875149,0.1770250093318402,0.7127747822480298,0.8227657572906867,0.5029597572501617,0.3504203532856828,0.239374243293188,0.1832492344848406,0.1860862142552283
0.1792313012548167,0.5833245047144825,0.7678842073355563,0.6114546046208916,0.1723590892123927,0.7127747822480298,0.8214487300094073,0.5001741033676566,0.3479643565603451,0.2380679283757089,0.1816966403588218,0.1840131699286629
0.1674735698053552,0.5691280856022883,0.7667474992421947,0.625122030589001,0.1674132138857783,0.7051016175860639,0.80310442144873,0.4878376361737054,0.3405333921093234,0.2316319378066654,0.1734161383533876,0.1733430888360466
0.1650034581563086,0.5709291238478651,0.7699302819036071,0.6256643887623387,0.1643337066069429,0.7081086686022398,0.780620884289746,0.4765457891856937,0.3347397588085267,0.2264704008156503,0.1685858455168844,0.1678556185598439
0.1767611896057702,0.5930712999258396,0.776750530463777,0.6077665690421955,0.1656401642403882,0.7236623807548735,0.7669802445907808,0.4747052678704671,0.335243553008596,0.2281909131459887,0.1723810756027084,0.1733430888360466
0.1852583736784903,0.6072677190380336,0.7803879963625341,0.5959431608634342,0.1675065322881672,0.7330982994608046,0.7599247412982125,0.4767945082823459,0.3368179098838125,0.2312814630727075,0.1770819855953767,0.1799890250594475
0.1816026084379014,0.6049369636614047,0.7814489239163384,0.5990888382687928,0.1650802538260545,0.732683533803401,0.741486359360301,0.4710739690593443,0.3337636575458925,0.2295928120818199,0.17479622202096,0.1789525028961648
0.1702400948522873,0.5938129039093124,0.7822067293119127,0.6110207180822215,0.1592011944755506,0.7277063459145583,0.7181561618062088,0.4593841715166891,0.3263641802323751,0.2232205441916778,0.1661275714840212,0.168465337479422
0.1688568323288212,0.5920118656637354,0.7820551682327977,0.6126477926022346,0.1586412840612169,0.7267731231854002,0.7068673565380996,0.4519723424364523,0.3226172108693599,0.2188874020263811,0.1615560443351878,0.1623071763916834
0.1769587985376939,0.6058904544972984,0.7857684146711125,0.6011497993274759,0.160227696901829,0.7361053504769804,0.7141110065851364,0.4547579963189574,0.324254542019585,0.2207672210539731,0.1651356363479535,0.1674288153161393
0.1869380495998419,0.6154253628562347,0.7849348287359805,0.5908449940340602,0.1654535274356103,0.7401493156366653,0.7245531514581373,0.4611252051932548,0.3268679744324443,0.2238259096412413,0.1690602492776124,0.1746844704591183
0.1809109771761683,0.6043013031041424,0.7815247044558957,0.5998481397114654,0.1647069802164987,0.7323724595603484,0.7191909689557855,0.4572451872854798,0.3228376208318902,0.2197476581915503,0.1660844438694096,0.1710261569416499
0.1682640055330501,0.5794045979446975,0.7734161867232495,0.6194815055862892,0.1636804777902202,0.7147449191206968,0.7046095954844779,0.4455553897428244,0.3144305551182342,0.210539731090295,0.1563376029671799,0.158648862874215
0.1695484635905543,0.5731539357982837,0.7680357684146711,0.6219763531836424,0.1675998506905562,0.7080049771878889,0.7046095954844779,0.444063075162911,0.3139897351931736,0.2102211176957879,0.1554750506749471,0.1577952563868057
0.1816026084379014,0.5826888441572199,0.7656865716883905,0.6104783599088838,0.1747853676745054,0.7110120282040647,0.7244590780809032,0.4535144008356961,0.3195314713939356,0.2156375454024087,0.1622029585543623,0.1663922931528565
0.1867404406679182,0.5881979023201609,0.7656107911488331,0.6048378349061719,0.1773049645390071,0.7136043135628369,0.7366886171213546,0.4595831467940109,0.3226172108693599,0.2179634231823106,0.1655669124940699,0.1709651850496921
0.1788360833909692,0.5795105413709077,0.765459230069718,0.6136240373142423,0.173665546845838,0.7092492741600996,0.7392285983066792,0.4601303288066458,0.3224597751818382,0.21703944433824,0.1646181049726139,0.1688311688311688
0.1662879162138128,0.5688102553236571,0.7674295240982116,0.6259898036663413,0.1664800298618887,0.7054126918291166,0.7353715898400751,0.457493906382132,0.3209798797191348,0.2149684572739438,0.1603915987406736,0.1629778672032193
0.1638178045647663,0.5719885581099692,0.7715974537738709,0.6256643887623387,0.1627472937663307,0.7097677312318541,0.7348071495766698,0.4562503108988708,0.3202241884190309,0.2142356464665774,0.157631431405529,0.1595024693616243
0.171129335045944,0.5866087509270049,0.7764474083055471,0.61416639548758,0.1632138857782755,0.7202405640812941,0.7477892756349952,0.4629657265084813,0.3240971063320634,0.2179952845217613,0.1625479794712554,0.1652338272056582
0.1748839047524948,0.5945545078927853,0.7792512882691726,0.6080919839461981,0.1633072041806644,0.726047283284944,0.7636876763875823,0.4680893398995175,0.3269624358449574,0.2211495571273816,0.1678526760684866,0.1709651850496921
0.1691532457267068,0.5810996927640639,0.7739466505001515,0.6181798459702788,0.1637737961926091,0.7158855246785567,0.7656632173095014,0.4674924140675521,0.3259233603073145,0.219237876760339,0.1652650191917885,0.1674288153161393
0.1560122517537792,0.5578980824239855,0.767505304637769,0.6371623820370973,0.1615341545352744,0.700124429697221,0.7658513640639699,0.4643088096304034,0.3228691079693945,0.2149047345950423,0.1583646008539267,0.1585269190902993
0.1554194249580081,0.5484691174912595,0.7612155198545014,0.642369020501139,0.1651735722284434,0.6912069680630444,0.7756349952963312,0.4670944635129085,0.3235933121319941,0.2142675078060281,0.1567257514986846,0.1559660996280714
0.167572374271317,0.5549316664900942,0.7565171264019399,0.6323896301117258,0.1738521836506159,0.6911032766486935,0.7907808090310442,0.4755011689797542,0.3283793570326522,0.2190785700630854,0.162720489929702,0.1635266142308395
0.1780456476632743,0.5603347812268248,0.7523491967262806,0.6239288426076581,0.181317655841732,0.6908958938199917,0.7984948259642521,0.4823160722280257,0.33200037784565,0.2227744854393679,0.1681976969853797,0.1713310164014389
0.1696472680565161,0.5488928911961012,0.750682024856017,0.6343421195357414,0.1784247853676745,0.6841559518871837,0.7944496707431796,0.4787842610555639,0.330079662457886,0.2211495571273816,0.1660413162547979,0.1693799158587891
0.1560122517537792,0.5373450577391672,0.7528038799636254,0.6476841305998481,0.1706793579693916,0.680008295313148,0.7827845719661336,0.4693329353827787,0.3246009005321326,0.2154145160262537,0.1589683874584896,0.1613316261203585
0.156901491947436,0.5470918529505243,0.759093664746893,0.6422605488664713,0.1672265770810004,0.6890294483616757,0.7688617121354656,0.4630652141471422,0.3220504423942819,0.2132160836041547,0.1562082201233449,0.1577342844948479
0.1699436814544017,0.5735777095031253,0.7680357684146711,0.6215424666449724,0.167879805897723,0.7081086686022398,0.7716839134524929,0.4665472815002736,0.3246009005321326,0.2166252469253807,0.16082287488679,0.1627949515273459
0.1743898824226855,0.5856552600911112,0.7733404061836922,0.6128647358715695,0.1666666666666666,0.7177519701368726,0.7805268109125117,0.4705765308660399,0.3274347429075223,0.2200662715860575,0.1653512744210117,0.1678556185598439
0.1678687876692026,0.5795105413709077,0.7738708699605941,0.6196984488556242,0.1632138857782755,0.7150559933637495,0.7781749764816557,0.4676416455255434,0.3250417204571932,0.2178359778245077,0.1619010652520809,0.1653557709895738
