Lead I,Lead II,Lead III,aVR,aVL,aVF,V1,V2,V3,V4,V5,V6
0.5012296707655692,0.3722772277227722,0.321537999399219,0.5913048151332759,0.6886313322047141,0.357462649026611,0.6120729995320543,0.6676606318778842,0.6675808538163001,0.5020726759569588,0.4041148891620009,0.3380991893789493
0.4836176120587069,0.3662970297029703,0.3257434665064583,0.6013005159071367,0.6696184399010288,0.3554504753760249,0.6058025269068787,0.6598509052183174,0.6623027166882276,0.4970453342741224,0.3999726887887478,0.3333758856194549
0.4767155890519635,0.3602376237623762,0.3218383899068789,0.6077493551160791,0.6681859617137649,0.349967302178178,0.5983153954141319,0.6559460418885339,0.6588874514877101,0.4933409772446638,0.3953297828758705,0.3271206995595838
0.4745735819119397,0.3555643564356435,0.3163112045659357,0.6116723989681857,0.6723531709858054,0.3446853463453896,0.6164716892840431,0.6717074902378417,0.6697024579560155,0.4995149056270947,0.3992443898220219,0.3274398417054956
0.4848869496231654,0.3514059405940593,0.3022529288074497,0.6109737747205504,0.6961843990102878,0.3361839126716635,0.6416471689284042,0.6996095136670216,0.689417852522639,0.5149056270947256,0.4106695798625335,0.3363119933618433
0.4890916303054344,0.3506930693069306,0.2979873835986782,0.610006448839209,0.7042583669748664,0.3339202173147542,0.6570893776321947,0.7233226837060702,0.7100129366106079,0.5316193332157346,0.4229596249260322,0.3445458607263675
0.4825862752875843,0.3586138613861386,0.3149294082306999,0.6068895098882201,0.6804271389503841,0.3460435635595351,0.663640617688348,0.7485977990770323,0.7398188874514877,0.5550802610689716,0.4409850243524966,0.3565456054126508
0.4895676318921063,0.3827722772277227,0.3462300991288675,0.588134135855546,0.6522984763641099,0.374465516374063,0.6593355170800186,0.7841675541356052,0.7934799482535575,0.604912683012877,0.4867768218853839,0.3995021382523775
0.525505751685839,0.4207920792079207,0.3767497747071193,0.5501397248495271,0.6486521682510743,0.4114392072035817,0.6493214787084698,0.8266950656727015,0.8670633893919792,0.6814252954665726,0.5631571760207565,0.4856705176485606
0.5947639825466086,0.4743762376237623,0.4055872634424752,0.4903267411865864,0.6743065503320744,0.457517983802002,0.602526906878802,0.8599219027334043,0.9503234152652004,0.7955106720762039,0.6855569211161181,0.624497351120189
0.7041650138833797,0.5571881188118811,0.4483628717332532,0.3970872742906277,0.7178017971089985,0.5279943659137784,0.4814225549836218,0.8341498047568335,0.976921086675291,0.9134768036690774,0.8384541854431244,0.8078125997319207
0.7659658865529553,0.6405940594059406,0.528086512466206,0.3195937231298366,0.6821200677171506,0.6143669198651843,0.3455311183902667,0.7296414625488108,0.9055109961190168,0.941259481390016,0.9128317174200008,0.9219378311099764
0.7666005553351846,0.6852277227722771,0.5953139080805047,0.2890692175408426,0.6097148066154446,0.6708586951053876,0.2530650444548432,0.6038338658146964,0.7530659767141008,0.8414182395484212,0.850744230506623,0.8999808514712453
0.7078936929789768,0.6558415841584158,0.5951937518774407,0.3288907996560619,0.5616616746972262,0.6521454801549373,0.2390266729059428,0.4815761448349308,0.5483053040103492,0.6267419297936143,0.6589284901452046,0.7420693176740921
0.5637445458151528,0.6349702970297029,0.6726945028537098,0.3918744625967326,0.359291574423753,0.6713114341767695,0.2430510060832943,0.2894568690095846,0.3030271668822768,0.3380666784265302,0.379671355091265,0.5043722473989914
0.4574375247917494,0.5697425742574257,0.6542505256833884,0.4721087704213241,0.2920953249120978,0.62221439710247,0.362377164248947,0.2952786652467163,0.2309961190168175,0.1869377315223143,0.1892666939778779,0.2920788919384693
0.4029353431178105,0.4464158415841584,0.5084409732652448,0.5742691315563199,0.4053913269957025,0.4828210674581215,0.5807206364061769,0.4827831025914093,0.3428201811125484,0.2263626741929793,0.1744731212162592,0.1857407289206612
0.3826259420864736,0.3627722772277227,0.3969960949234004,0.6378976784178847,0.509441333506967,0.3830675587303184,0.7257838090781469,0.6483493077742278,0.4668046571798188,0.3075939319103898,0.2230415585597887,0.164294376715389
0.3927013090043633,0.356079207920792,0.3791528987683989,0.6390262252794496,0.5370490949342361,0.3713466472156547,0.7629386991109031,0.698757543485978,0.5281759379042691,0.3633797847944963,0.2690609495197779,0.1894427778132379
0.4272114240380802,0.3699009900990098,0.3740462601381796,0.6179600171969045,0.5709076702695663,0.3779868202625886,0.716331305568554,0.6787362442314518,0.5655368693402327,0.4091109543129299,0.3161727889298557,0.2434416289015127
0.4591828639428799,0.3729504950495049,0.3544007209372183,0.6050623387790198,0.618570126318531,0.3716484732632426,0.6453907346747777,0.6678026269080581,0.6071927554980594,0.4496383841947433,0.3560471573580955,0.2900363822046339
0.4696548988496629,0.3709702970297029,0.3435265845599279,0.602858985382631,0.6388852715197291,0.3658634740178077,0.6026204960224614,0.6550230741924032,0.6289262613195342,0.4690421591109542,0.3727069962219491,0.3083551413799706
0.468226894089647,0.3618613861386138,0.3307299489336137,0.6095227858985383,0.6516473499153536,0.3546959102570551,0.5951333645297144,0.648278310259141,0.6383441138421733,0.4753042864702769,0.3755291547180117,0.3077806855173294
0.4746529155097184,0.356039603960396,0.3170321417843196,0.6112962166809974,0.671702044537049,0.3452889984405654,0.612821712681329,0.6651757188498403,0.6561966364812418,0.4876521432351384,0.3854977468250716,0.3151209548733005
0.4817929393097978,0.3531485148514851,0.3072394112346049,0.6108125537403267,0.6882406563354603,0.3393530861713366,0.6339728591483388,0.6856230031948882,0.6717723156532988,0.4990298112541894,0.3967863808093222,0.3269292142720367
0.4840936136453789,0.3534257425742574,0.3059176930009011,0.6098989681857265,0.6914962885792421,0.3389506514412194,0.6458586803930744,0.6940717074902378,0.6786028460543337,0.5040130534485799,0.401747917520142,0.3326737728984489
0.4825069416898057,0.3487920792079207,0.300090117152298,0.6135533104041273,0.6964448495897902,0.3335680869259017,0.6417407580720635,0.6872559460418884,0.6758085381630012,0.501896278003175,0.3996995766762256,0.3283334397140486
0.4768742562475209,0.3421782178217821,0.2943226194052267,0.6199484092863284,0.6981377783565568,0.3269782182202324,0.6335985025737014,0.6771033013844515,0.6710996119016817,0.4988093138119597,0.3959670444717556,0.3240569349588306
0.4759222530741769,0.3398019801980198,0.2914388705316912,0.6218830610490111,0.7004818335720797,0.3242617837919412,0.6339728591483388,0.6767483138090167,0.6716170763260024,0.4991180102310812,0.3964222313259593,0.324120763388013
0.4843316144387148,0.3466930693069306,0.2955241814358666,0.6143594153052451,0.7029561140773538,0.330348609084964,0.6414599906410856,0.6857649982250622,0.6784993531694695,0.5052919386135121,0.4021120670035049,0.3304397778770664
0.4917889726299088,0.352079207920792,0.2979873835986782,0.6081792777300087,0.7063419716108869,0.334825695457518,0.6433317735142723,0.691089811856585,0.6833117723156532,0.5098341859234432,0.4072556784560062,0.338035360949767
0.4832209440698136,0.3477623762376237,0.2979873835986782,0.6140369733447979,0.6993098059643182,0.3320589566879621,0.6378100140383716,0.683422080227192,0.6784476067270374,0.5062621273593225,0.4041148891620009,0.3335035424778196
0.4776675922253075,0.3425346534653465,0.2943226194052267,0.6194110060189166,0.6987889048053131,0.3272297399265557,0.6303228825456246,0.6743343982960596,0.6721862871927554,0.5003086964191215,0.3984705721698757,0.325014361396566
0.4814756049186831,0.3441584158415841,0.2938419945929708,0.6170464316423043,0.7024352129183487,0.3280346093867901,0.6314459522695367,0.6750443734469292,0.6723932729624837,0.5004409948844593,0.3978333105739906,0.3222697389417246
0.489646965489885,0.3517623762376237,0.2991889456293181,0.60914660361135,0.7033467899466076,0.3351275215051059,0.643238184370613,0.6849840255591054,0.6795860284605433,0.5064826248015522,0.4039783331057399,0.3282696112848662
0.4934549781832607,0.3561584158415841,0.3029738660258336,0.604847377472055,0.7023049876285974,0.3394536948538659,0.646888160973327,0.6898828541001065,0.685019404915912,0.5115981654612807,0.4083936455915153,0.3347801110614667
0.4882982943276478,0.353029702970297,0.3021327726043857,0.6087166809974205,0.6990493553848156,0.3371396951556919,0.6387459054749649,0.6813631522896698,0.6806209573091849,0.5081584053624977,0.4046611133870453,0.3308865768813429
0.485680285600952,0.348039603960396,0.2965455091619105,0.6129621668099742,0.7029561140773538,0.3316565219578449,0.6268600842302293,0.6707135250266241,0.6734282018111254,0.5013670841418238,0.4002002822158496,0.3245037339631071
0.4880602935343118,0.3486336633663366,0.2956443376389306,0.6117798796216681,0.705951295741633,0.3316062176165803,0.6290126345343939,0.6720624778132765,0.6736869340232858,0.5017198800493914,0.4014748054076198,0.3278228122805897
0.4971836572788576,0.3540198019801979,0.2969059777711024,0.6050085984522786,0.7120718843599426,0.3355802605764877,0.6410856340664483,0.6816471423500178,0.6809314359637775,0.5088198976891868,0.4082570895352542,0.337141762941214
0.5040856802856011,0.3576633663366336,0.2971462901772304,0.600225709372313,0.7174111212397447,0.337994868957191,0.6409920449227888,0.6858359957401491,0.6828978007761966,0.5112894690421591,0.4113978788292594,0.3414182676964319
0.4965489884966284,0.3553267326732673,0.299369179933914,0.6043637145313843,0.708816252116161,0.3374415212032798,0.6293869911090314,0.6754703585374512,0.6765847347994824,0.5059093314517551,0.4067549729163822,0.3354822237824727
0.486632288774296,0.3523168316831683,0.3023730850105137,0.6097914875322442,0.6973564266180492,0.3367875647668394,0.6137576041179222,0.6620518281860135,0.6674773609314358,0.499294408184865,0.3999271701033274,0.3260994446926661
0.4904403014676716,0.3541782178217821,0.3022529288074497,0.6072119518486673,0.7007422841515821,0.3379445646159263,0.6123537669630322,0.662974795882144,0.6687192755498059,0.5010142882342564,0.4017023988347216,0.329290866151784
0.5013883379611266,0.3571089108910891,0.2984079303094022,0.6015154772141015,0.7138950384164604,0.3381960863222495,0.6214319138979878,0.6728434504792332,0.6761190168175937,0.5076733109895925,0.4083936455915153,0.3410991255505202
0.503609678698929,0.3567524752475247,0.2961850405527185,0.6009780739466897,0.718062247688501,0.336988782131898,0.6248947122133832,0.6776002839900603,0.67875808538163,0.5112012700652672,0.4118075469980427,0.3469713410352971
0.4942483141610472,0.3518811881188118,0.2958846500450585,0.6074806534823731,0.7107696314624299,0.3337693042909603,0.6118858212447356,0.6658146964856231,0.670685640362225,0.5042776503792555,0.406117711320497,0.3390566158166847
0.4900436334787783,0.3475643564356435,0.292520276359267,0.6118336199484092,0.7108998567521811,0.3296443483072589,0.5956948993916705,0.6541001064962726,0.6621992238033634,0.4976186276239194,0.4000182074741681,0.3312057190272547
0.4889329631098771,0.348079207920792,0.2941423851006308,0.6118873602751504,0.7082953509571558,0.3306504351325519,0.6006551240056153,0.6575789847355342,0.6649417852522639,0.500573293349797,0.4025672538577086,0.333950341482096
0.4941689805632686,0.3499801980198019,0.2930609792730549,0.6087704213241616,0.7137648131267091,0.3314050002515217,0.6105755732335049,0.6667376641817536,0.6721345407503234,0.5069236196860116,0.4085302016477763,0.3420565519882556
0.497104323681079,0.3518019801980197,0.2935416040853109,0.606567067927773,0.7155879671832269,0.3327632174656673,0.6116050538137575,0.6704295349662762,0.6753945666235446,0.5097459869465514,0.4125813646501889,0.3474819684687559
0.4917889726299088,0.3508514851485148,0.2961850405527185,0.6090391229578676,0.708425576246907,0.3332662608783138,0.5937295273748245,0.660986865459709,0.6689262613195341,0.5049391427059445,0.4071646410851655,0.3416735814131614
0.4875049583498612,0.3499009900990098,0.2979873835986782,0.6111349957007739,0.7029561140773538,0.3334171739021077,0.5768834815161441,0.6494852680156195,0.6609055627425614,0.4991180102310812,0.4014292867221994,0.3343333120571902
0.4952003173343912,0.35409900990099,0.2985280865124662,0.6056534823731727,0.7086860268264097,0.3363348256954575,0.5781001403837154,0.6525381611643593,0.6634411384217334,0.5023372728876345,0.4048887068141472,0.3379077040914023
0.5073383577945261,0.3612673267326732,0.3001501952538299,0.5966788478073947,0.7167599947909883,0.3415664771869812,0.5928872250818904,0.6643947461838835,0.6730659767141008,0.5112012700652672,0.4126724020210296,0.3498436203485032
0.5100357001190005,0.3622574257425742,0.299669570441574,0.5951203783319003,0.719494725875765,0.3419689119170984,0.5992512868507253,0.6704295349662762,0.676895213454075,0.5149938260716175,0.4159952660567163,0.3546945809663623
0.5021816739389132,0.3577029702970297,0.2987083208170621,0.6008705932932072,0.7141554889959629,0.3386991297348961,0.5897987833411323,0.6634717784877529,0.6723932729624837,0.5115981654612807,0.4118985843688834,0.3486947086232208
0.4986116620388735,0.3539801980198019,0.2957644938419946,0.6045786758383491,0.7144159395754655,0.3350772171638412,0.5741693963500234,0.6541001064962726,0.6659767141009054,0.5071882166166871,0.4081660521644135,0.3423118657049849
0.5045616818722729,0.3564752475247524,0.2950435566236106,0.6008705932932072,0.7200156270347702,0.3363851300367221,0.5694899391670566,0.6548810791622293,0.6674773609314358,0.5089521961545246,0.4110337293458965,0.3459500861683793
0.5164617215390719,0.3634851485148514,0.2967257434665064,0.5921109200343938,0.7279593697095975,0.3415161728457165,0.5762283575105287,0.6653887113951011,0.6773609314359637,0.5184776856588463,0.4206836906550138,0.3590349141507627
0.522253074176914,0.3654257425742573,0.2952237909282066,0.5888327601031814,0.7343404089074098,0.3421198249408924,0.5797847449695835,0.6713525026624068,0.6829495472186287,0.5242547186452636,0.428057717693113,0.3680985510946575
0.5190797302657676,0.3616633663366336,0.2919194953439471,0.5924333619948409,0.7353822112254199,0.3383469993460435,0.5673373888628919,0.6646787362442315,0.6801552393272962,0.523328629387899,0.4280121990076926,0.3661198697900044
0.5148750495834987,0.3588910891089109,0.2908981676179032,0.5957652622527945,0.7330381560098971,0.3361336083303989,0.5505849321478707,0.6550940717074901,0.6751358344113841,0.5208590580349267,0.4254176339387319,0.3616518797472394
0.5204284014280048,0.3621782178217821,0.2916791829378191,0.5916272570937231,0.7366844641229326,0.3385985210523668,0.5474964904071127,0.6576499822506212,0.6784993531694695,0.526018698183101,0.4301970959078702,0.3679708942362928
0.5373264577548592,0.3704554455445544,0.2914388705316912,0.5802880481513327,0.750879020705821,0.3437295638613612,0.5542349087505849,0.6695775647852326,0.6897800776196635,0.5371758687599223,0.4421685101734262,0.3840556583902469
0.5443078143593812,0.3725940594059405,0.2893962150796035,0.5764724849527085,0.7588227633806485,0.3442326072740077,0.555357978474497,0.6773872914447995,0.6986287192755497,0.5462603633797847,0.4518184714825435,0.3977787706644539
0.5420864736215788,0.370059405940594,0.2871733253229198,0.578944539982803,0.7593436645396535,0.3417173902107752,0.5392606457650913,0.6717074902378417,0.698214747736093,0.548024342917622,0.4550958168328098,0.401353162698666
0.5408964696548989,0.3686732673267326,0.2860318413938119,0.5802880481513327,0.7597343404089074,0.3403088686553649,0.5198876930276087,0.6636847710330138,0.6958344113842173,0.5483771388251896,0.4554599663161728,0.4012255058403012
0.5527965093216979,0.3739009900990098,0.2850105136677681,0.5727106620808254,0.7705430394582627,0.3432265204487147,0.5124941506785213,0.668157614483493,0.7027166882276843,0.556756041629917,0.4646547407710865,0.412778451522308
0.5669972233240778,0.3804356435643564,0.2841093421447882,0.5634673258813413,0.7831748925641359,0.3469993460435636,0.5164248947122133,0.6823571175008875,0.7171539456662354,0.5713088728170752,0.480176612499431,0.4313525244143741
0.5726299087663627,0.381980198019802,0.2821868428957644,0.560511607910576,0.7898163823414507,0.3471502590673575,0.515769770706598,0.6930067447639333,0.7289521345407503,0.5837008290703827,0.4927852883608721,0.4480117444309694
0.571836572788576,0.380079207920792,0.2799038750375488,0.5620700773860705,0.7917697616877197,0.3450374767342422,0.4998596162845109,0.6899538516151935,0.7306080206985769,0.58687599223849,0.4975647503300104,0.4533095040531052
0.5677905593018644,0.3786930693069306,0.2808651246620606,0.5643809114359415,0.7873421018361765,0.3445344333215956,0.4802058961160504,0.6841320553780618,0.7297800776196636,0.5886399717763273,0.5005689835677546,0.4566924107997702
0.5756445854819517,0.3829306930693069,0.2812856713727846,0.5588456577815992,0.7933324651647349,0.3474017807736807,0.4745905474964903,0.6903088391906284,0.7368693402328589,0.5958281883930145,0.5083071600892166,0.4672241016148593
0.5878619595398652,0.391049504950495,0.2844097326524482,0.5491723989681857,0.7999739549420497,0.3538407364555561,0.4809546092653252,0.7027334043308484,0.7489262613195342,0.6065884635738225,0.5201420182985116,0.4828620667645369
0.5967473224910751,0.3977029702970296,0.2877741063382397,0.5416487532244196,0.8036202630550852,0.3595251270184617,0.4781469349555451,0.7104721334753283,0.7575161707632599,0.6158052566590226,0.5302016477764122,0.495372438884279
0.5970646568821897,0.3985742574257425,0.2888555121658155,0.5410038693035254,0.8027086860268263,0.36048090950249,0.4615816565278427,0.7067092651757187,0.7576714100905562,0.6159375551243605,0.5311120214848195,0.497159634901385
0.5966679888932964,0.4005148514851485,0.2920997296485431,0.5397678417884781,0.7988019273342882,0.3630967352482519,0.4441740758072063,0.6993255236066737,0.7547736093143596,0.6133356853060504,0.5298830169784696,0.4970319780430203
0.6076160253867514,0.4089900990099009,0.2966656653649744,0.5303095442820291,0.8028389113165776,0.3703908647316263,0.4418343472157229,0.703727369542066,0.759482535575679,0.6179661315928735,0.5353452592289134,0.5045637326865385
0.619833399444665,0.4195643564356435,0.3034544908380895,0.5190240756663801,0.8055736424013543,0.37994868957191,0.4524099204492278,0.7152999645012424,0.7698318240620956,0.6269183277473981,0.5454048887068141,0.5180953596731984
0.6225307417691394,0.4260198019801979,0.3112045659357164,0.5137575236457437,0.7993228284932933,0.3872931233965491,0.4571829667758539,0.7233936812211572,0.7760413971539456,0.6312841771035456,0.5503209067322136,0.5256271143167166
0.6090440301467672,0.4227722772277227,0.3165515169720637,0.5205288048151333,0.7825237661153795,0.3874943407616077,0.4521291530182498,0.7174298899538516,0.7709184993531694,0.6259481390015874,0.5444489963129865,0.5175209038105573
0.594208647362158,0.4217821782178217,0.3262841694202463,0.5261715391229579,0.7597343404089074,0.390915035967604,0.448291998128217,0.7103301384451544,0.7641914618369986,0.617613335685306,0.5342072920934043,0.5031595072445266
0.5888139627132091,0.4281188118811881,0.3399218984680084,0.5237532244196045,0.7405912228154706,0.4006740781729463,0.4557791296209639,0.7099751508697195,0.7615523932729623,0.6107779149761862,0.5254221858072738,0.4923725027127082
0.5855612852042842,0.4338217821782177,0.3510363472514268,0.5209587274290628,0.7258757650735773,0.4089239901403491,0.475058493214787,0.716506922257721,0.7610349288486415,0.6062356676662549,0.5186854203650598,0.4868194293738431
0.5721539071796906,0.4314851485148513,0.3576449384199459,0.5270851246775581,0.7077744497981507,0.4101815986719653,0.491810949929808,0.7133120340788073,0.7546183699870632,0.595519491973893,0.5068050434703446,0.4723303759494479
0.5470051566838557,0.4222574257425742,0.3627515770501652,0.5418637145313844,0.6815991665581456,0.4064590774183812,0.4928404305100608,0.696414625488108,0.7373350582147477,0.5767331098959252,0.4862761163457599,0.4435437543882045
0.5283617612058708,0.4155643564356435,0.3666566536497446,0.552719260533104,0.6620653730954551,0.4038432516726193,0.4930276087973794,0.6778842740504083,0.7172574385510996,0.5563591462339036,0.4654285584232327,0.4138635348184081
0.519000396667989,0.4133069306930693,0.3703214178431961,0.5574484092863284,0.6503450970178409,0.4039438603551485,0.5045390734674777,0.6690095846645367,0.7045278137128071,0.5422473099312047,0.4504073922345122,0.3965660305099891
0.5172550575168584,0.414019801980198,0.3727245419044758,0.5575021496130697,0.6463081130355515,0.4054529905930882,0.5275620028076743,0.6682286119985801,0.6990944372574385,0.5339566061033691,0.4414402112067003,0.3913959277462182
0.5078936929789767,0.4094257425742574,0.3728446981075398,0.5638435081685297,0.6384945956504753,0.4025353387997384,0.5401029480580252,0.6626908058217963,0.6878654592496765,0.5243870171106014,0.4318812872684237,0.3815025212229527
0.4890916303054344,0.3994455445544554,0.3719435265845599,0.5769561478933791,0.6240395884880843,0.3958448614115398,0.5343940102948058,0.645296414625488,0.6689262613195341,0.5076733109895925,0.4156766352587737,0.3610774238845982
0.4797302657675527,0.3940594059405941,0.3708621207569841,0.5837811693895099,0.6175283240005208,0.3919714271341616,0.5258773982218062,0.627689030883919,0.6526261319534281,0.4927235844064208,0.4013382493513587,0.3424395225633497
0.482665608885363,0.3957623762376236,0.371162511264644,0.5816315563198624,0.6196119286365412,0.3931787313245133,0.5308376228357511,0.6226482073127441,0.6455368693402328,0.4865055565355441,0.3957394510446538,0.3366949639369375
0.4875049583498612,0.3987326732673267,0.3720636827876239,0.5779772141014617,0.6226071103008204,0.3954424266814226,0.5427234440804866,0.6269080582179625,0.6459508408796895,0.4866819544893278,0.3965587873822204,0.3389927873875024
0.4831416104720349,0.3967920792079207,0.3724241513968159,0.5807717110920035,0.6187003516082823,0.3943357311736002,0.5477772578380907,0.6248491302804402,0.6420698576972833,0.4833744928558827,0.3925076243798078,0.3361843365034786
0.4690202300674336,0.3887128712871287,0.3708621207569841,0.5910361134995701,0.6086730042974344,0.38860103626943,0.5381375760411792,0.6114305999290025,0.6310478654592496,0.4738931028400069,0.3828121443852701,0.3240569349588306
0.4621975406584689,0.3853861386138613,0.370982276960048,0.5956040412725709,0.6029430915483787,0.3865385582775793,0.5276555919513336,0.6004969826056088,0.6205950840879689,0.4656023990121714,0.3741180754699804,0.3118657049850002
0.464736215787386,0.3895841584158415,0.3754280564734154,0.5918959587274291,0.6002083604636019,0.3910156446501333,0.5291530182498829,0.5990770323038694,0.6176972833117722,0.4626918327747397,0.3717966225135418,0.3096955383928001
0.47219357397858,0.3955643564356435,0.3788525082607389,0.5853396388650043,0.6026826409688761,0.396247296141657,0.5393542349087506,0.6073127440539581,0.6236481241914618,0.4655582995237254,0.3758477855159542,0.3158230675943064
0.4733042443474812,0.3949702970297029,0.3771102433163112,0.5853396388650043,0.605547597343404,0.3951909049750993,0.5444080486663546,0.6098686545970892,0.6248900388098317,0.4669694831539953,0.3772133460785652,0.3163336950277653
0.4600555335184451,0.3879207920792079,0.3764493841994593,0.5946367153912296,0.5952597994530537,0.3904119925549575,0.5341132428638278,0.6,0.6177490297542044,0.4604427588639971,0.3707952114342937,0.3069509159379587
0.4480761602538676,0.3826138613861385,0.3774707119255032,0.602267841788478,0.584320875113947,0.3874943407616077,0.5210107627515208,0.5888533901313453,0.6098835705045277,0.4537396366202151,0.3639218899358186,0.2985255632858875
0.449821499404998,0.3845148514851484,0.379032742565335,0.6003869303525365,0.5840604245344445,0.3893556013883998,0.5213851193261582,0.58991835285765,0.6104527813712807,0.4532545422473099,0.3640584459920797,0.3009510435948171
0.4586275287584292,0.3901782178217821,0.3808951637128266,0.5935619088564058,0.5893996614142466,0.3936817747371597,0.5292466073935423,0.5991480298189563,0.6158344113842172,0.4588110777914976,0.3685647958486959,0.3084827982383353
0.4616422054740183,0.3895841584158415,0.3777711024331631,0.5929170249355116,0.5951295741633025,0.3920217314754263,0.5306504445484324,0.6016329428470004,0.6168175937904269,0.4600017639795378,0.3698393190404661,0.3082913129507882
0.453550178500595,0.3832871287128712,0.3743466506458396,0.599957007738607,0.5922646177887746,0.386588862618844,0.519981282171268,0.5914093006744764,0.6100905562742561,0.4547098253660256,0.365469525240111,0.3008233867364524
0.4487901626338755,0.3792871287128712,0.3718834484830279,0.6043099742046432,0.5909623648912619,0.3830172543890537,0.5063172671970051,0.5814696485623002,0.6030530401034928,0.4497265831716351,0.3600072829896672,0.293802259526393
0.4509321697738992,0.3817425742574257,0.3740462601381796,0.6018916595012898,0.5904414637322568,0.3854821671110217,0.5078146934955544,0.5839545615903443,0.6052781371280723,0.4512259657787969,0.3623287359461058,0.2962277398353226
0.4601348671162237,0.3859801980198019,0.3734454791228597,0.5958727429062769,0.5986456569865868,0.3879470798329896,0.5197941038839494,0.5944621938232162,0.6129883570504526,0.4588110777914976,0.3703855432655104,0.3071424012255058
0.4602142007140024,0.3842772277227722,0.3708020426554521,0.5970550300945829,0.601640838650866,0.3857336888173449,0.5245671502105755,0.5981540646077387,0.6158344113842172,0.462559534309402,0.3746187810096044,0.3138443862896534
0.4510115033716779,0.3783366336633663,0.3687593872033644,0.6042024935511607,0.596301601771064,0.381105689420997,0.5150210575573233,0.5912673056443024,0.6105562742561449,0.4588110777914976,0.3712503982884974,0.3093763962468883
0.4501388337961127,0.375009900990099,0.364373685791529,0.6067282889079966,0.6003385857533532,0.3771316464610896,0.5050070191857744,0.5828186013489528,0.6046054333764553,0.4556800141118363,0.3684282397924348,0.3036318376204761
0.4568821896072987,0.3790099009900989,0.3653349354160409,0.6017304385210661,0.6047662456048964,0.380099602595704,0.5062236780533458,0.5862264820731274,0.6076067270375161,0.4589433762568353,0.3716600664572806,0.3071424012255058
0.4675128917096391,0.3854653465346533,0.3671372784620006,0.5937768701633706,0.6115379606719624,0.3849288193571105,0.515769770706598,0.5977280795172168,0.6159896507115135,0.4671458811077791,0.3798989485183667,0.3185676900491478
0.4712415708052361,0.3870099009900989,0.3665364974466807,0.5914122957867584,0.6153144940747494,0.3856833844760803,0.5196069255966308,0.6011359602413916,0.6183182406209572,0.4701446463221025,0.3842687423187218,0.3230995085210952
0.4681475604918684,0.3837623762376237,0.364013217182337,0.5946904557179707,0.6154447193645005,0.3825645153176719,0.5102480112306972,0.5939652112176074,0.6140232858990944,0.4663520903157522,0.3802175793163093,0.3179294057573242
0.4644188813962713,0.3809108910891088,0.3625112646440372,0.5978611349957007,0.6140122411772365,0.3801499069369686,0.4996724379971923,0.5870074547390842,0.6104527813712807,0.4623831363556182,0.3760298602576357,0.3123763324184592
0.4710829036096787,0.3828514851485147,0.3604686091919495,0.5943142734307825,0.6216955332725614,0.3805020373258212,0.5039775386055216,0.5906993255236067,0.6126261319534282,0.4646322102663608,0.3782602758432336,0.3149294695857534
0.4762395874652916,0.3866930693069306,0.3623911084409733,0.5899613069647464,0.6237791379085819,0.3837718195080235,0.516612072999532,0.6,0.6189391979301422,0.4706738401834537,0.3846328918020847,0.3238654496712835
0.4755255850852837,0.3862970297029702,0.3622709522379093,0.5904449699054171,0.623388462039328,0.3834196891191709,0.5218530650444548,0.6041888533901314,0.6221992238033635,0.4732757100017639,0.3880923118940325,0.3275036701346779
0.4675922253074177,0.3809108910891088,0.3601081405827576,0.5968400687876182,0.6192212527672873,0.3791438201116756,0.5094992980814225,0.5960951366702166,0.616300129366106,0.4688657611571705,0.3829031817561109,0.3204187144954363
0.4586275287584292,0.3772673267326732,0.3613697807149294,0.6023215821152192,0.6104961583539522,0.3773328638261481,0.4972391202620496,0.5867944621938231,0.6088486416558861,0.4630887281707532,0.3766671218535208,0.3132061019978298
0.4616422054740183,0.3807524752475247,0.364313607689997,0.5989359415305244,0.6097148066154446,0.3808038633734091,0.5013570425830604,0.5895633652822152,0.6116429495472187,0.4645881107779149,0.378442350584915,0.3150571264441181
0.4676715589051964,0.3855049504950494,0.3670171222589366,0.5936693895098882,0.6117984112514651,0.3849288193571105,0.5109031352363125,0.6002839900603479,0.6195601552393272,0.4709384371141294,0.384541854431244,0.3225888810876364
0.4685442284807616,0.3846336633663365,0.3650946230099128,0.5939918314703354,0.6145331423362416,0.3835706021429649,0.5133364529714552,0.6018459353922613,0.6204915912031047,0.4724378197212911,0.3854067094542309,0.3242484202463777
0.4603728679095598,0.3783762376237624,0.3616701712225894,0.6009780739466897,0.6115379606719624,0.3781880376276472,0.5057557323350491,0.5918352857649982,0.6135058214747735,0.4662197918504145,0.3794892803495834,0.3165251803153124
0.457754859182864,0.3755643564356434,0.3594472814659057,0.6037725709372314,0.6119286365412163,0.3754212988580914,0.4990173139915769,0.5859424920127795,0.6077102199223803,0.4613688481213617,0.3739360007282989,0.3091210825301589
0.4625148750495835,0.3789306930693069,0.3609492340042055,0.5998495270851247,0.6141424664669879,0.3781880376276472,0.5047262517547964,0.5894213702520412,0.6097283311772315,0.4630446286823072,0.3764850471118394,0.3121210187017297
0.4710829036096787,0.384079207920792,0.3622709522379093,0.5935081685296647,0.6197421539262924,0.3820614719050254,0.5130556855404773,0.597231096911608,0.616300129366106,0.4675868759922384,0.381173471710137,0.3184400331907831
0.4707655692185641,0.3832475247524752,0.3612496245118654,0.5941530524505589,0.6205235056648001,0.381105689420997,0.5167056621431914,0.5985090521831736,0.6173350582147477,0.4682483683189274,0.3813555464518185,0.3194612880577009
0.4609282030940104,0.3778217821782177,0.3604686091919495,0.6011392949269132,0.6133611147284802,0.3772825594848835,0.5113710809546091,0.5894213702520412,0.6100905562742561,0.4613688481213617,0.3753470799763303,0.3113550775515414
0.4568028560095201,0.3760792079207921,0.3609492340042055,0.6037725709372314,0.6094543560359422,0.3764273856833844,0.503790360318203,0.5816116435924742,0.6047089262613194,0.456473804903863,0.3705676180071919,0.3042701219122997
0.4632288774295914,0.3799999999999999,0.3620306398317813,0.5989359415305244,0.6134913400182316,0.3793450374767342,0.5080018717828731,0.5861554845580405,0.6076584734799482,0.4595166696066324,0.3729345896490509,0.3065041169336822
0.4693375644585482,0.3837623762376237,0.3631120456593572,0.5942605331040413,0.6173980987107696,0.3822123849288193,0.5182030884417407,0.5948881789137381,0.6134540750323414,0.4642794143587934,0.3776230142473485,0.314482670581477
0.4675922253074177,0.3827326732673267,0.3628717332532292,0.5955503009458297,0.6162260711030082,0.3814578198098496,0.5198876930276087,0.5954561590344338,0.613764553686934,0.463838419474334,0.3777595703036096,0.3145464990106593
0.4554541848472828,0.3761584158415841,0.3620907179333133,0.6041487532244195,0.6071103008204193,0.3769304290960309,0.5036031820308844,0.5832445864394746,0.6052781371280723,0.4560328100194037,0.3707496927488734,0.3051637199208527
0.4483141610472035,0.3714059405940594,0.3602883748873535,0.6097914875322442,0.6032035421278812,0.3731576035011821,0.4948058025269068,0.5739439119630814,0.5979301423027166,0.4499029811254189,0.3641039646775001,0.2972489947022403
0.4545021816739389,0.3736633663366336,0.3590267347551817,0.6061908856405848,0.6095845813256934,0.3740630816439458,0.5002339728591483,0.5777777777777777,0.5998965071151358,0.4519756570823778,0.3657881560380536,0.2991000191485287
0.463784212614042,0.3792871287128712,0.3605286872934815,0.5992046431642305,0.615705169944003,0.3782383419689119,0.51268132896584,0.5874334398296059,0.606261319534282,0.4568707002998765,0.3715235104010196,0.3058020042126763
0.4637048790162634,0.380039603960396,0.3617302493241214,0.5987209802235598,0.6142726917567392,0.3792444287942049,0.5148338792700047,0.5894923677671281,0.6071410090556274,0.4583700829070382,0.3722518093677454,0.3066956022212292
0.4514081713605712,0.3744950495049504,0.3625713427455693,0.6066208082545141,0.6033337674176324,0.3760752552945319,0.5074403369209172,0.5824636137735179,0.6015523932729624,0.4532986417357558,0.3670626792298238,0.2983340779983404
0.4528361761205871,0.3748514851485148,0.3620907179333133,0.6059221840068788,0.6048964708946477,0.3761255596357966,0.5030416471689284,0.5789137380191693,0.5984993531694696,0.449814782148527,0.3645136328462834,0.2939937448139401
0.4645775485918287,0.3817821782178217,0.3636527485731451,0.5972699914015477,0.6129704388592264,0.3811559937622616,0.506036499766027,0.5882854100106496,0.6052263906856403,0.4547980243429175,0.3685192771632755,0.3009510435948171
0.4775089250297502,0.391049504950495,0.3679783718834485,0.5865756663800515,0.6188305768980334,0.3888525579757533,0.5117454375292466,0.6021299254526091,0.6159379042690815,0.463794319985888,0.3761664163138968,0.3126316461351885
0.4788575961919873,0.3976633663366336,0.3769900871132472,0.5816315563198624,0.6101054824846985,0.3968006438955681,0.5124005615348619,0.6044018459353923,0.6208020698576971,0.4674545775269006,0.3801720606308889,0.3176102636114125
0.4690995636652122,0.3963960396039604,0.3824571943526584,0.5857695614789338,0.596301601771064,0.3983097741335077,0.4991109031352362,0.5929712460063897,0.6151099611901681,0.4623831363556182,0.375438117347171,0.3097593668219824
0.4697342324474415,0.4017821782178217,0.3901471913487533,0.5819002579535684,0.5884880843859877,0.4049499471804416,0.4926532522227421,0.5865814696485623,0.6129366106080206,0.4606632563062267,0.3730711457053119,0.3070147443671411
0.4763982546608489,0.4104554455445544,0.3982577350555722,0.5737854686156492,0.5851022268524547,0.4138538155842849,0.5054749649040711,0.5995030173943912,0.6227166882276842,0.4671458811077791,0.3777595703036096,0.3149932980149358
0.4922649742165808,0.422059405940594,0.4039050765995794,0.5605653482373173,0.592004167209272,0.4236128577896273,0.5104351895180159,0.6168264110756123,0.6355498059508408,0.4779502557770329,0.3868633073876826,0.3264824152677602
0.4985323284410948,0.4277227722772277,0.4076899969960949,0.5545464316423043,0.5930459695272822,0.4287942049398863,0.4853532990173139,0.6183883564075257,0.640051746442432,0.4817869112718291,0.3905958395921525,0.3314610327439841
0.4899642998809996,0.4226930693069306,0.4064884349654551,0.5608877901977644,0.5873160567782263,0.425071683686302,0.4452035563874589,0.5987930422435215,0.6316688227684346,0.4764067736814252,0.3869088260731029,0.3258441309759367
0.4848076160253868,0.420990099009901,0.4078702313006909,0.5637897678417885,0.5815861440291704,0.4245686402736556,0.4264857276555919,0.5810436634717785,0.6210090556274255,0.4703651437643323,0.382174882789385,0.3209931703580774
0.4913923046410155,0.4307326732673267,0.4176629618504055,0.5549763542562338,0.5763771324391196,0.4348307258916444,0.419279363593823,0.5736599219027334,0.620077619663648,0.4714676309754806,0.3854522281396513,0.328397268143231
0.5010710035700119,0.4398811881188118,0.4242114749173926,0.5454643164230438,0.5772887094673785,0.4434327682478998,0.4234908750584931,0.5737309194178203,0.6207503234152651,0.4734080084671017,0.3898220219400063,0.3363119933618433
0.4967076556921857,0.4387326732673267,0.4257735055572244,0.5477214101461737,0.5719494725875766,0.4433321595653705,0.4232101076275152,0.564643237486688,0.6126778783958602,0.4672781795731169,0.3854522281396513,0.3320993170358077
0.4846489488298295,0.4337425742574257,0.4273355361970562,0.5551913155631987,0.5603594217997134,0.4408169425021379,0.4117922321010762,0.544124955626553,0.5958602846054333,0.4545775269006878,0.3727525149073694,0.3181847194740537
0.4740975803252678,0.4283564356435643,0.4272153799939922,0.5623925193465176,0.5517645526761297,0.437345942954877,0.403369209171736,0.5301384451544195,0.581319534282018,0.4434644558123125,0.3622376985752651,0.3035041807621114
0.4790162633875447,0.4302970297029702,0.4263742865725443,0.5594368013757524,0.5567131136866779,0.4382011167563761,0.4087037903603181,0.5353212637557685,0.5830789133247088,0.4458458281883929,0.3642860394191816,0.3056105189251292
0.4871082903609679,0.4347326732673267,0.4269750675878642,0.5536865864144453,0.5627034770152364,0.4413199859147844,0.4202152550304164,0.5456869009584665,0.590737386804657,0.4518874581054859,0.3705676180071919,0.3140358715772005
0.4842522808409362,0.4335841584158415,0.4273956142985882,0.5554600171969045,0.5599687459304596,0.4407163338196086,0.4210575573233504,0.5461838835640752,0.5910478654592496,0.4523284529899452,0.3708862488051345,0.3148018127273888
0.4752875842919477,0.4268910891089109,0.4240312406127966,0.5630374032674119,0.5563224378174241,0.4350822475979677,0.4091717360786148,0.5329073482428115,0.5811125485122898,0.4437290527429881,0.3625108106877873,0.3043339503414821
0.4678302261007537,0.4208712871287128,0.4205467107239411,0.5696474634565778,0.55384815731215,0.4298002917651793,0.4021525503041647,0.521618743343983,0.5709702457956015,0.4355706473804903,0.3552733397059492,0.2978872789940639
0.4776675922253075,0.4214257425742573,0.4139381195554221,0.5659393809114359,0.5690845162130486,0.4273856833844761,0.4045858680393074,0.5264465743698971,0.5735058214747735,0.4395837008290703,0.3597796895625654,0.3052913767792174
0.4994843316144387,0.4222970297029702,0.3987383598678282,0.5579320722269991,0.6035942179971351,0.4215503797977765,0.4131960692559662,0.5378061767838126,0.581940491591203,0.4476539072146762,0.3697482816696253,0.3210569987872598
0.5095596985323285,0.4196831683168316,0.3870832081706218,0.5562661220980223,0.6244302643573382,0.4150108154333719,0.417594759007955,0.5417110401135959,0.5827684346701163,0.4489327923796083,0.3737994446720378,0.3264185868385779
0.5021816739389132,0.4158019801980198,0.3869029738660258,0.5614251934651763,0.618570126318531,0.4124955983701392,0.4112306972391202,0.53177138800142,0.5753686934023285,0.4428029634856235,0.3682916837361736,0.3208016850705304
0.4927409758032527,0.4095445544554455,0.3844998498047461,0.56884135855546,0.6134913400182316,0.4075154685849388,0.4102948058025269,0.5253816116435925,0.5684346701164295,0.4365849356147468,0.3605990259001319,0.3118657049850002
0.4842522808409362,0.4052277227722772,0.3844397717032142,0.5746990541702492,0.606459174371663,0.4047487298153831,0.4339728591483388,0.5392971246006389,0.5748512289780077,0.4393191038983947,0.3603714324730301,0.3089295972426118
0.4691788972629909,0.4031287128712871,0.392610393511565,0.5812016337059329,0.585232452142206,0.4068615121484983,0.4724379971923256,0.5600283990060347,0.5879948253557568,0.4468160169342035,0.3656971186672129,0.3106529648305355
0.4521221737405792,0.3959207920792078,0.3946530489636528,0.5918959587274291,0.5690845162130486,0.4030886865536495,0.4910622367805334,0.5650692225772098,0.5927554980595083,0.4472129123302168,0.3643770767900222,0.306631773792047
0.4380801269337565,0.3813465346534653,0.3831180534695103,0.6065133276010318,0.5699960932413074,0.3890034709995472,0.4925596630790828,0.5596734114305999,0.5874773609314359,0.4413476803669077,0.3556830078747325,0.2935469458096636
0.4341927806426022,0.3705742574257425,0.3697807149294082,0.6151655202063628,0.5813256934496678,0.3765782987071784,0.491810949929808,0.5584664536741214,0.5846313065976713,0.438437114129476,0.3514497701306386,0.2849939362992276
0.4441888139627132,0.367049504950495,0.356803844998498,0.6141444539982803,0.6035942179971351,0.3689320388349514,0.5030416471689284,0.5680511182108625,0.5895472186287193,0.4407743870171105,0.3538167417724975,0.2851215931575923
0.450535501785006,0.3668118811881187,0.3515770501652148,0.6121560619088564,0.6144029170464904,0.3666180391367775,0.5200748713149275,0.5813276535321265,0.5973091849935316,0.4450079379079202,0.3579134234603304,0.2892066126252632
0.4462514875049584,0.3629702970297029,0.3490537699008711,0.6161865864144455,0.6137517905977341,0.3630967352482519,0.5259709873654655,0.584664536741214,0.598809831824062,0.4463309225612982,0.3589148345395785,0.2888874704793515
0.4351447838159461,0.3545742574257425,0.3447281465905677,0.6256448839208942,0.6091939054564396,0.3559535187886714,0.5161441272812354,0.5752218672346467,0.5926002587322121,0.4406420885517727,0.3525877372661477,0.2790578923852684
0.4299087663625546,0.3502178217821782,0.3421447882246921,0.6303740326741186,0.6077614272691756,0.352130388852558,0.516331305568554,0.5779197728079517,0.5928589909443726,0.4386576115717057,0.3490827984887796,0.2716537946001148
0.4339547798492662,0.3472079207920792,0.3344547912285971,0.6310726569217541,0.61948170334679,0.3469490417022989,0.5366401497426299,0.6033368832090877,0.6085899094437257,0.4476539072146762,0.3551823023351085,0.2742069317674092
0.4432368107893694,0.3461386138613861,0.3258636227095224,0.6286543422184007,0.636410991014455,0.3427234770360682,0.557042583060365,0.6310259140930068,0.6290297542043984,0.4617657435173751,0.365469525240111,0.2800153188230037
0.4472034906783023,0.3500198019801979,0.328747371583058,0.6246775580395528,0.636410991014455,0.3463453896071231,0.5719232569021993,0.6568690095846645,0.6534540750323414,0.4794496383841947,0.3766216031681005,0.2870364460330631
0.4476794922649742,0.367009900990099,0.3541003304295584,0.6130159071367154,0.6094543560359422,0.3677750389858644,0.57182966775854,0.6906638267660632,0.6995601552393272,0.5171988004939142,0.4093495379853429,0.3163975234569477
0.4733042443474812,0.3982970297029702,0.3821568038449985,0.5830825451418744,0.5999479098840995,0.39941646964133,0.5646233036967712,0.7356052538161164,0.7698835705045277,0.5860381019580172,0.4760344121261777,0.3859066828365353
0.5402618008726696,0.4492277227722772,0.4087113247221388,0.5258490971625107,0.6261231931241047,0.4428291161527239,0.5297145531118389,0.7684771033013844,0.846934023285899,0.6856147468689362,0.5825481360098321,0.5103082913129507
0.6286394287980961,0.5222970297029703,0.4526284169420246,0.4463134135855546,0.6511264487563484,0.5076714120428593,0.4319138979878333,0.7370252041178559,0.8743078913324709,0.7990386311518786,0.7239291729254859,0.6777940894874577
0.6972629908766363,0.6036435643564356,0.5240012015620306,0.3679062768701633,0.630160177106394,0.5891644448915941,0.3124941506785212,0.6386936457223997,0.8253557567917205,0.8546480860822014,0.8229323137147798,0.812535903491415
0.711543038476795,0.6573069306930693,0.5946530489636528,0.326633705932932,0.5653079828102616,0.6528497409326425,0.1983153954141319,0.4977635782747603,0.6845536869340232,0.7886752513670839,0.7991715599253494,0.8296419225122869
0.6700515668385563,0.6362376237623761,0.5941724241513968,0.3550085984522785,0.5317098580544342,0.6392675687911866,0.1513336452971455,0.3703940362087327,0.4735316946959895,0.5872728876345034,0.6286585643406619,0.6966873045254356
0.5476398254660849,0.6161188118811881,0.6562931811354761,0.410146173688736,0.3638494595650475,0.6524976105437899,0.1247543284978942,0.1681931132410365,0.2048641655886157,0.2956870700299876,0.3637853338795575,0.4808833854598838
0.4190400634668783,0.585029702970297,0.706518474016221,0.4747957867583834,0.2039328037504883,0.6537552190754062,0.204492278895648,0.0965566205182818,0.0754980595084088,0.1037660963132827,0.1516227411352359,0.2698027701538265
0.3519238397461325,0.4860990099009901,0.607329528386903,0.5646496130696474,0.2564135955202499,0.5494240152925197,0.4144127281235376,0.2610578629747958,0.1686934023285898,0.1177015346621978,0.10724202285038,0.1493585242867173
0.3301071003570012,0.3971089108910891,0.4887954340642835,0.6323624247635425,0.3669748665190779,0.4432818552241058,0.5875526438933083,0.4716364927227546,0.321293661060802,0.2133974245898747,0.1579953570940871,0.1214016723048445
0.3345497818326062,0.3672079207920791,0.4400120156203064,0.6511715391229579,0.4233624169813777,0.403893556013884,0.6325690219934487,0.5503017394391196,0.4074514877102198,0.2816193332157346,0.2087486913377941,0.1358268973000574
0.3735025783419278,0.3780198019801979,0.4269149894863323,0.6306427343078246,0.4695923948430785,0.4052517732280296,0.5848385587271876,0.5517216897408591,0.4645278137128071,0.3350238137237608,0.2585461331876735,0.1849747877704729
0.4140420468068227,0.3861386138613861,0.4085911685190748,0.6114036973344799,0.5227243130615966,0.402736556164797,0.5201684604585868,0.5571175008874689,0.5199482535575678,0.3837978479449637,0.3034275570121534,0.2350162762494414
0.4299087663625546,0.3816237623762376,0.3897266446380294,0.6090928632846088,0.5561922125276728,0.3919714271341616,0.4954609265325221,0.5574014909478169,0.5502716688227683,0.4077879696595519,0.3249578952159861,0.2576115401799961
0.428639428798096,0.3694257425742573,0.3721237608891559,0.617798796216681,0.5742935278030994,0.3768801247547663,0.4993916705662142,0.5586794462193824,0.5635705045278137,0.4161227729758334,0.3296463198142838,0.2580583391842727
0.4313367711225704,0.3601980198019801,0.3561429858816461,0.6231190885640584,0.5938273212657897,0.3643040394386035,0.5098736546560598,0.5699680511182109,0.5772315653298835,0.4239283824307637,0.3347899312667849,0.2586966234760962
0.4458548195160651,0.358059405940594,0.3419044758185641,0.6196797076526225,0.6211746321135564,0.3569596056139644,0.5327094057089377,0.5928292509762157,0.5955498059508408,0.4369818310107602,0.345759934453093,0.2709516818791089
0.4544228480761603,0.3582178217821782,0.335716431360769,0.616670249355116,0.6348482875374397,0.3544946928919966,0.5493682732802995,0.6073127440539581,0.6064683053040103,0.4445669430234609,0.3532249988620328,0.2801429756813685
0.4499801666005554,0.352990099009901,0.3310904175428056,0.6217218400687876,0.6361505404349524,0.3492630414004729,0.5488067384183434,0.6070287539936102,0.606882276843467,0.4454048333039336,0.3537712230870772,0.2788025786685389
0.4400634668782229,0.3451485148514851,0.3267047161309702,0.6303740326741186,0.6328949081911707,0.3424216509884802,0.5373888628919045,0.5966631167909123,0.5999999999999999,0.4400246957135296,0.3474896444990668,0.2691644858620028
0.4354621182070607,0.3417425742574257,0.3250225292880745,0.6342970765262252,0.6308113035551504,0.3395543035363951,0.5313991576977071,0.5917642882499112,0.5973091849935316,0.4365408361263009,0.344394373890482,0.2629092998021318
0.4421261404204681,0.3449108910891089,0.3247822168819465,0.6298903697334479,0.6366714415939575,0.3414658685044519,0.5395414131960692,0.5986510472133475,0.6033117723156532,0.4418768742282589,0.3497655787700851,0.2689091721452735
0.4509321697738992,0.3481980198019802,0.3231000300390507,0.6246775580395528,0.6456569865867952,0.3428240857185975,0.5531118390266728,0.6080937167199147,0.6109184993531694,0.4483594990298111,0.3562292320997769,0.2776536669432565
0.447520825069417,0.3458217821782178,0.3220186242114749,0.6274183147033534,0.6440942831097799,0.3408622164092761,0.5532054281703322,0.6085906993255236,0.6118499353169469,0.4480949020991356,0.3566844189539805,0.2795046913895449
0.4414914716382388,0.342059405940594,0.320937218383899,0.6320399828030955,0.6401875244172418,0.3380451732984557,0.5432849789424427,0.5991480298189563,0.6059508408796894,0.4436849532545421,0.3517228822431608,0.272738877896215
0.4411741372471242,0.3426930693069307,0.3221387804145388,0.6316638005159072,0.6387550462299778,0.3389506514412194,0.5388862891904538,0.594817181398651,0.603156532988357,0.4415240783206914,0.3494924666575629,0.2692921427203676
0.4511701705672352,0.3484356435643564,0.3233403424451787,0.6244088564058469,0.6456569865867952,0.3430756074249207,0.5460926532522228,0.6012779552715656,0.6087451487710219,0.4457576292115011,0.3537257044016568,0.2754196719218739
0.4589448631495439,0.3527920792079207,0.3240012015620306,0.6188198624247635,0.6512566740460997,0.3461441722420644,0.5548900327562002,0.6090166844160455,0.6152652005174644,0.4517110601517021,0.3587782784833174,0.283270568711304
0.460531535105117,0.352079207920792,0.3217783118053469,0.6187661220980224,0.6549029821591352,0.3447859550279188,0.5513336452971455,0.6072417465388711,0.6142302716688227,0.4512259657787969,0.3588237971687377,0.2832067402821216
0.4551368504561682,0.3476039603960396,0.3189546410333433,0.6236027515047291,0.6536007292616225,0.3407616077267468,0.5384183434721572,0.5978700745473908,0.607503234152652,0.4455371317692714,0.3532249988620328,0.2755473287802387
0.4545815152717176,0.348118811881188,0.3202763592670472,0.6234952708512468,0.6516473499153536,0.3416167815282458,0.5333645297145531,0.5927582534611289,0.6040879689521345,0.4434644558123125,0.3509035459055942,0.2719091083168443
0.4614042046806823,0.3532277227722772,0.3227996395313908,0.6176913155631986,0.6545123062898814,0.3459429548770059,0.5416003743565746,0.6,0.6092108667529107,0.4478303051684599,0.3564113068414584,0.2779728090891682
0.4705275684252281,0.3587326732673267,0.3242415139681586,0.6108662940670678,0.66050266961844,0.3500176065194426,0.5506785212915302,0.6087326943556975,0.6158861578266493,0.4540042335508907,0.3630115162274113,0.2869726176038807
0.4660055533518445,0.3569900990099009,0.3250225292880745,0.6135533104041273,0.6559447844771454,0.3492127370592082,0.5480580252690687,0.6061057862974796,0.6149547218628719,0.4540042335508907,0.3630570349128317,0.2863343333120571
0.4545021816739389,0.3509702970297029,0.3246019825773505,0.6215606190885641,0.6469592394843079,0.3452386940993007,0.5340196537201684,0.5932552360667377,0.6066235446313065,0.4468601164226494,0.3556830078747325,0.2772706963681624
0.4509321697738992,0.3493861386138613,0.3248422949834785,0.623817712811694,0.6438338325302774,0.344333215956537,0.5246607393542349,0.5870784522541711,0.6020181112548512,0.4430675604162991,0.3518139196140015,0.2740792749090445
0.4590241967473225,0.3544158415841583,0.3263442475217783,0.6176913155631986,0.6487823935408256,0.3481563458926505,0.530276087973795,0.5919772807951722,0.6057438551099611,0.4468601164226494,0.3560016386726751,0.2796961766770919
0.4634668782229275,0.3583366336633663,0.3289876839891859,0.6135533104041273,0.6495637452793331,0.3517279541224407,0.5418811417875526,0.6028399006034789,0.6133505821474773,0.4540924325277826,0.3630570349128317,0.2888236420501691
0.4596588655295518,0.3559207920792078,0.32820666866927,0.6164552880481513,0.6472196900638103,0.3499169978369133,0.5375760411792232,0.6004259850905218,0.6115394566623544,0.4542247309931204,0.3629659975419909,0.2884406714750749
0.4559301864339549,0.352079207920792,0.3251426854911385,0.6203245915735167,0.6474801406433129,0.3461944765833291,0.5230697239120261,0.5903443379481718,0.6034152652005174,0.4483594990298111,0.3569120123810824,0.2808450884023744
0.4594208647362158,0.3539801980198019,0.3254430759987984,0.6178525365434222,0.6500846464383383,0.34750238945621,0.5151146467009826,0.584664536741214,0.6009314359637774,0.4455371317692714,0.3545905594246438,0.2778451522308036
0.4712415708052361,0.3608712871287128,0.3269450285370982,0.6092003439380911,0.658158614402917,0.3524825192414105,0.5182966775854001,0.5906283280085197,0.6066752910737386,0.4508731698712294,0.3594610587646228,0.2854407353035041
0.482427608092027,0.3663366336633663,0.3267647942325022,0.601676698194325,0.6675348352650083,0.3559032144474068,0.5276555919513336,0.5993610223642172,0.613143596377749,0.4574880931381195,0.366334380263098,0.2948873428224931
0.4800476001586672,0.3653465346534653,0.3270051066386302,0.6031814273430782,0.6653210053392369,0.3553498666934956,0.5233504913430042,0.5979410720624778,0.6114877102199223,0.4580613864879166,0.3670626792298238,0.2959085976894108
0.4694168980563269,0.3586930693069306,0.3250225292880745,0.6112424763542562,0.6586795155619222,0.3503194325670305,0.5095928872250818,0.5872204472843451,0.6045019404915911,0.452504850943729,0.362601848058628,0.2878023871832514
0.468702895676319,0.3584158415841583,0.3252027635926705,0.6117261392949269,0.6578981638234144,0.3502188238845012,0.5036967711745437,0.5833865814696486,0.6021216041397154,0.4504321749867701,0.3617825117210615,0.2851854215867747
0.4782229274097581,0.3642772277227722,0.3267647942325022,0.6045249355116078,0.6640187524417241,0.3545953015745258,0.5074403369209172,0.5907703230386937,0.6073997412677878,0.4563856059269711,0.3678820155673903,0.2945682006765813
0.4874256247520825,0.3698217821782177,0.328266746770802,0.5975924333619949,0.6700091157702825,0.3587202575582273,0.5150210575573233,0.6,0.6161966364812419,0.4645881107779149,0.3760298602576357,0.3058020042126763
0.4855216184053947,0.3683564356435643,0.3274857314508861,0.5992583834909716,0.6693579893215262,0.3575129533678756,0.5090313523631258,0.5978700745473908,0.6164036222509701,0.4650732051508202,0.3762574536847375,0.3054190336375821
0.4813962713209044,0.3647128712871286,0.3251426854911385,0.6031276870163371,0.6684464122932673,0.3541928668444086,0.4920917173607861,0.5880724174653887,0.6096765847347994,0.4619862409596048,0.3720697346260639,0.298972362290164
0.4888536295120984,0.3683960396039603,0.3249624511865425,0.5980760963026656,0.6748274514910796,0.356456562201318,0.4830135704258306,0.584948526801562,0.6086934023285898,0.4620744399364966,0.3728890709636305,0.2991000191485287
0.4950416501388338,0.3724356435643564,0.3264644037248422,0.5932932072226998,0.6782133090246125,0.359625735700991,0.487880205896116,0.5931132410365637,0.6165588615782664,0.4693067560416298,0.3804906914288314,0.3083551413799706
0.5027370091233638,0.3757227722772276,0.3256233103033943,0.5884028374892519,0.6853756999609323,0.3613863876452537,0.4924660739354234,0.6033368832090877,0.6263906856403622,0.4794496383841947,0.3902316901087896,0.3219505967958128
0.5034510115033718,0.3736633663366336,0.3218984680084109,0.5895851246775581,0.6900638103919781,0.3585190401931686,0.4864763687412259,0.6037628682996095,0.6277360931435962,0.4829775974598694,0.3947835586508262,0.3268653858428544
0.4967076556921857,0.3679207920792078,0.3183538600180234,0.5957652622527945,0.6883708816252117,0.3533879973841742,0.4680393074403368,0.5955981540646078,0.6239068564036222,0.4805080261068971,0.3930538486048522,0.3241845918171954
0.5024196747322491,0.368118811881188,0.314268549113848,0.5937231298366293,0.6974866519078005,0.3517782584637054,0.4570893776321946,0.594817181398651,0.6261319534282017,0.4836390897865584,0.3964222313259593,0.3281419544265015
0.5181277270924237,0.376118811881188,0.3145689396215079,0.5829750644883921,0.7099882797239223,0.3570099099552291,0.4626111371080954,0.6070287539936102,0.6379301423027166,0.4955018521785146,0.4076653466247894,0.344099061722091
0.5302657675525586,0.3813069306930692,0.3132472213878041,0.5753439380911436,0.7214481052220341,0.3597263443835203,0.4696303228825456,0.6215122470713524,0.6512289780077618,0.5087316987122948,0.4214575083071601,0.3620348503223335
0.5347877826259422,0.3810693069306929,0.3094623009912887,0.5739466895958727,0.7292616226071102,0.3580159967805221,0.4621431913897987,0.6258430954916577,0.6575937904269081,0.5168019050979008,0.4292867221994628,0.3698857471117636
0.5334391114637049,0.37809900990099,0.3059777711024332,0.5764187446259673,0.7318661284021357,0.3546959102570551,0.4428638277959756,0.6223642172523961,0.6572315653298836,0.5190509790086434,0.4313350630433793,0.3712899725537754
0.5388337961126537,0.3806336633663366,0.3057374586963052,0.572871883061049,0.7366844641229326,0.3562050404949947,0.433224145999064,0.625133120340788,0.6632858990944371,0.5252249073910742,0.4380718284855933,0.3792046977723878
0.5543038476794924,0.3895445544554455,0.307539801742265,0.5615864144453998,0.7473629378825367,0.3625936918356054,0.4366869443144595,0.6391906283280085,0.6771021992238032,0.5392926442053272,0.4519550275388046,0.3965660305099891
0.5666005553351845,0.3960396039603959,0.3080805046560528,0.5530417024935511,0.7568693840343794,0.36697016952563,0.4422087037903603,0.6555910543130989,0.6921086675291073,0.5528311871582289,0.4670217124129455,0.4135443926724963
0.5642998809996034,0.3961980198019801,0.3100630820066086,0.5536865864144453,0.7528324000520901,0.3678756476683937,0.4335049134300421,0.6591409300674477,0.698163001293661,0.5582113247486329,0.4728025854613318,0.4212676326035616
0.5603332011106704,0.3953663366336633,0.3118053469510363,0.555567497850387,0.7477536137517905,0.3680768650334524,0.4138511932615816,0.653035143769968,0.696300129366106,0.5577703298641735,0.4730301788884336,0.4218420884662028
0.5677112257040857,0.4005544554455445,0.314088314809252,0.549548581255374,0.7512696965750748,0.3723024296996831,0.4060832943378567,0.6549520766773164,0.7003363518758084,0.5625330746163344,0.4786289771951386,0.4292461862513563
0.5822292740975804,0.4104950495049504,0.3182337038149594,0.5379406706792778,0.7586925380908972,0.3803511243020273,0.4111371080954608,0.6683706070287541,0.7126002587322121,0.5734697477509261,0.4904183167190131,0.4453947788344928
0.5884966283220945,0.4159603960396039,0.3217182337038149,0.5320829750644884,0.7601250162781611,0.3853312540872277,0.4163781001403837,0.6801561945331913,0.7237257438551099,0.5832598341859234,0.5021621375574674,0.4605221165507116
0.586275287584292,0.4167524752475247,0.3246620606788825,0.5322979363714532,0.7550462299778616,0.3870416016902259,0.4110435189518016,0.6816471423500178,0.7272445019404915,0.5864790968424765,0.5061677818744594,0.4653092487393885
0.5781039270130901,0.4158019801980198,0.3293481525983779,0.535737317282889,0.7431957286104961,0.3883998189043715,0.3983153954141319,0.6751863684771032,0.7242432082794307,0.5831275357205855,0.5029814738950339,0.4624369694261824
0.5777865926219754,0.4214653465346534,0.3381796335235806,0.531975494411006,0.7334288318791509,0.3956939483877458,0.3961628451099672,0.6755413560525381,0.725640362225097,0.583480331628153,0.5040284036597024,0.4642241654432884
0.5865132883776281,0.4321584158415841,0.3478522078702313,0.5217648323301806,0.7301731996353692,0.4065093817596459,0.4051474029012634,0.6869719559815407,0.7333505821474773,0.5887722702416651,0.5092630524830443,0.4703516946447947
0.5884172947243158,0.4390099009900989,0.356743766896966,0.5164445399828032,0.7220992316707904,0.4146083807032546,0.4194665418811418,0.6967696130635428,0.738783958602846,0.5903157523372727,0.5099003140789294,0.472011233803536
0.572312574375248,0.4365940594059405,0.3652147792129769,0.523592003439381,0.6995702565438208,0.4166205543538407,0.4240524099204492,0.6913028044018459,0.7320051746442431,0.5814958546480861,0.5003869088260731,0.4598200038297058
0.550654502181674,0.4303366336633663,0.3722439170922199,0.5351461736887361,0.6743065503320744,0.4155641631872831,0.4228357510528778,0.6744053958111467,0.7156015523932728,0.564826248015523,0.481678729118303,0.4373523967575157
0.5400238000793337,0.4288316831683168,0.377951336737759,0.5397678417884781,0.6593306420106785,0.4170229890839579,0.4303228825456247,0.6616968406105787,0.7028201811125485,0.5493473275710001,0.4656106331649141,0.4184591817195378
0.5300277667592226,0.4283168316831683,0.3847401622108741,0.5435296646603611,0.6438338325302774,0.4195382061471905,0.4486663547028544,0.6610578629747959,0.694385510996119,0.539380843182219,0.4556875597432746,0.4063317801748899
0.5167790559301865,0.4245544554455445,0.3890657855211775,0.5505696474634566,0.628206797760125,0.4189848583932793,0.4679457182966775,0.6598509052183174,0.685071151358344,0.5292820603281001,0.4459010423778961,0.3942682070594243
0.4986909956366522,0.4159603960396039,0.3897266446380294,0.5625,0.6125797629899726,0.4137532069017556,0.4751520823584464,0.6443734469293575,0.6691849935316946,0.5130093490915505,0.4296508716828258,0.3758217910257228
0.4858389527965094,0.4073663366336633,0.3864223490537699,0.5726569217540842,0.6056778226331553,0.406911816489763,0.4715021057557322,0.6226482073127441,0.6469857697283311,0.4929440818486504,0.4096226500978652,0.3507372183570562
0.4822689408964696,0.4056237623762376,0.3864824271553019,0.5750752364574376,0.6026826409688761,0.4058554253232054,0.4745905474964903,0.6079517216897408,0.630633893919793,0.4797142353148702,0.3955573763029724,0.3352907384949256
0.4841729472431575,0.407089108910891,0.3872634424752178,0.5734092863284609,0.6034639927073837,0.4071130338548216,0.4883481516144127,0.6060347887823926,0.6252522639068563,0.4743340977244663,0.3896854658837452,0.3297376651560604
0.4825862752875843,0.4057425742574257,0.3864223490537699,0.5748602751504729,0.6030733168381299,0.40590572966447,0.5014506317267197,0.6058927937522186,0.621940491591203,0.4700564473452107,0.3864991579043196,0.3265462436969426
0.475446251487505,0.4000396039603959,0.3831781315710423,0.5812016337059329,0.6005990363328558,0.4009255998792696,0.5011698642957416,0.5953851615193468,0.6113324708926261,0.4614129476098077,0.3780326824161318,0.3163975234569477
0.4648155493851647,0.3925940594059405,0.3799339140883148,0.5898000859845227,0.595390024742805,0.3948387745862468,0.490687880205896,0.579552715654952,0.5977749029754204,0.4501234785676485,0.3656971186672129,0.3017169847450053
0.4627528758429195,0.3908118811881187,0.3787924301592069,0.5917347377472055,0.5949993488735512,0.393229035665778,0.4877866167524566,0.5738019169329074,0.5905821474773608,0.4431557593931909,0.3597796895625654,0.295397970255952
0.4678302261007537,0.3936633663366337,0.3793331330729949,0.5880803955288048,0.5985154316968354,0.3952915136576286,0.4982686008423023,0.5785587504437345,0.5926002587322121,0.4442141471158933,0.3613728435522782,0.2978872789940639
0.47219357397858,0.3954851485148514,0.3787323520576749,0.5853396388650043,0.6028128662586274,0.3961969918003924,0.5093121197941038,0.5850905218317359,0.596326002587322,0.4476539072146762,0.3642860394191816,0.3013978425990936
0.4652915509718366,0.3910099009900989,0.3771703214178432,0.590713671539123,0.5989061075660893,0.3926756879118668,0.506036499766027,0.5799077032303869,0.5917723156532988,0.4436408537660962,0.3598707269334061,0.2969298525563286
0.4584688615628719,0.3869306930693069,0.3761489936917993,0.5958190025795357,0.5943482224247948,0.3896574274359877,0.4945250350959288,0.5680511182108625,0.5816300129366105,0.43579114482272,0.352496699895307,0.2869726176038807
0.4629115430384768,0.3889108910891088,0.3758486031841394,0.5929707652622528,0.5983852064070843,0.3908144272850747,0.4927468413664014,0.5659211927582535,0.5799223803363518,0.4342917622155582,0.3512676953889572,0.28505776472841
0.4743355811186038,0.3946930693069306,0.3759086812856714,0.5851784178847808,0.6076312019794244,0.3944866441973942,0.5024801123069723,0.5742279020234291,0.5859249676584735,0.4390104074792731,0.3565023442122991,0.2915682645050105
0.47869892899643,0.3969900990099009,0.3760889155902673,0.5821152192605331,0.6110170595129574,0.3960460787765984,0.5118390266729059,0.5816826411075613,0.590685640362225,0.4425824660433938,0.3607355819563931,0.2975043084189698
0.4732249107497026,0.3938217821782178,0.3754280564734154,0.5861457437661222,0.6072405261101705,0.3937320790784245,0.5094057089377632,0.577067802626908,0.5880465717981888,0.4404656905979889,0.3584141289999544,0.2941852301014871
0.4631495438318128,0.388039603960396,0.3742865725443076,0.5935081685296647,0.6002083604636019,0.3895568187534584,0.4975198876930276,0.5664181753638622,0.5805433376455368,0.4342476627271123,0.3511766580181164,0.2854407353035041
0.4667195557318525,0.3891881188118811,0.3733253229197957,0.5914660361134996,0.6042453444458914,0.3899089491423109,0.4932147870846981,0.5636492722754703,0.5783699870633893,0.4325277826777208,0.3495835040284036,0.2824407991319334
0.4793335977786593,0.3958019801980197,0.3738059477320516,0.5827601031814273,0.6140122411772365,0.3943357311736002,0.5039775386055216,0.5740859069932552,0.5862354463130659,0.4390545069677191,0.356729937639401,0.2915044360758281
0.486156287187624,0.399049504950495,0.3735656353259237,0.5781921754084265,0.6198723792160437,0.396247296141657,0.5129620963968179,0.5831735889243875,0.5924967658473479,0.4449197389310283,0.3629204788565706,0.2999936171570817
0.482903609678699,0.3954059405940593,0.3705016521477921,0.5817927773000859,0.6205235056648001,0.3926756879118668,0.5089377632194665,0.579552715654952,0.5914100905562742,0.4439495501852178,0.3622832172606854,0.2981425927107933
0.4722729075763586,0.3894257425742574,0.3694803244217483,0.5894239036973344,0.6129704388592264,0.388450123245636,0.4965839962564342,0.5706070287539935,0.5852522639068564,0.4390545069677191,0.3570940871227639,0.2898448969170868
0.4710829036096787,0.3896633663366337,0.3706818864523881,0.5896926053310404,0.6106263836437036,0.3891040796820765,0.4942442676649508,0.5710330138445154,0.58509702457956,0.4395837008290703,0.3575037552915472,0.2898448969170868
0.4817929393097978,0.3945346534653464,0.3700210273355362,0.5827601031814273,0.6201328297955463,0.391921122792897,0.5042583060364997,0.579765708200213,0.59254851228978,0.4456253307461633,0.3635122217670354,0.2990361907193464
0.4846489488298295,0.3964356435643564,0.3707419645539201,0.5805030094582975,0.6216955332725614,0.3934302530308365,0.5122133832475433,0.5881434149804756,0.5986028460543337,0.4517110601517021,0.368837907961218,0.3060573179294057
0.479650932169774,0.3924356435643564,0.3684589966957044,0.5849097162510748,0.6200026045057949,0.3899592534835756,0.5067852129153018,0.5856585019524316,0.5956532988357051,0.4509172693596753,0.3682006463653329,0.3029935533286525
0.4706862356207855,0.3867326732673267,0.3666566536497446,0.5918422184006878,0.6146633676259928,0.3855324714522863,0.4958352831071595,0.577209797657082,0.5905821474773608,0.4459781266537307,0.3642405207337612,0.2952064849684049
0.472431574771916,0.3877623762376237,0.3668368879543406,0.5904987102321582,0.6159656205235057,0.386287036571256,0.4930276087973794,0.5757188498402556,0.5896507115135833,0.4460222261421767,0.3642405207337612,0.2951426565392225
0.4844109480364935,0.3937029702970296,0.3667768098528086,0.5824376612209803,0.6258627425446021,0.3900095578248402,0.5030416471689284,0.5851615193468228,0.596326002587322,0.4528576468512964,0.3712959169739178,0.3036956660496585
0.4942483141610472,0.3967128712871287,0.363893060979273,0.5770636285468616,0.63693189217346,0.39076412294381,0.5098736546560598,0.592332268370607,0.6015006468305303,0.4581936849532545,0.3767581592243616,0.310397651113806
0.4909956366521222,0.3932277227722772,0.3610693902072694,0.5805567497850387,0.6374527933324652,0.3873434277378138,0.5049134300421151,0.5895633652822152,0.6001552393272962,0.4569588992767683,0.3748463744367062,0.3086742835258824
0.4833002776675923,0.3891089108910891,0.3606488434965455,0.5859307824591573,0.6314624300039068,0.3845766889682579,0.4937763219466541,0.5808306709265176,0.5943596377749029,0.4508731698712294,0.3685647958486959,0.3012063573115465
0.4870289567631893,0.3906534653465346,0.3602282967858216,0.5836199484092863,0.6351087381169422,0.3853312540872277,0.4920917173607861,0.579765708200213,0.5942043984476066,0.4508731698712294,0.3682006463653329,0.299865960298717
0.493613645378818,0.3952475247524752,0.3621507960348453,0.5782459157351676,0.638364370360724,0.3890537753408119,0.5007955077211044,0.5876464323748668,0.6004139715394566,0.4557241136002822,0.3733897765032545,0.3077806855173294
0.4959936533121777,0.3964752475247524,0.3622108741363773,0.5766337059329321,0.6401875244172418,0.3898586448010463,0.5094992980814225,0.5958821441249555,0.6058473479948253,0.4601340624448755,0.3785789066411762,0.3134614157145592
0.4887742959143197,0.3919207920792078,0.3608290778011415,0.5821689595872742,0.6358900898554499,0.3863876452537854,0.503790360318203,0.5909123180688676,0.6015523932729624,0.4569588992767683,0.3754836360325914,0.306823259079594
0.4801269337564459,0.3866930693069306,0.3593872033643737,0.5886177987962167,0.6302904023961453,0.3825142109764072,0.4920917173607861,0.5790557330493432,0.5931177231565329,0.4496383841947433,0.3682461650507533,0.296291568264505
0.4806822689408965,0.3872079207920792,0.3597476719735656,0.5880803955288048,0.6304206276858966,0.3829669500477891,0.4917173607861488,0.5774937877174299,0.5917205692108667,0.449109190333392,0.3663798989485183,0.2943767153890342
0.4935343117810393,0.3937029702970296,0.3598678281766296,0.5793207222699914,0.6408386508659982,0.3871422103727551,0.5034160037435657,0.5877884274050408,0.5976714100905562,0.4539160345739989,0.3718421411989621,0.3013340141699112
0.4964696548988497,0.3956435643564355,0.3605887653950135,0.5770636285468616,0.6424013543430134,0.3886513406106947,0.5122133832475433,0.5954561590344338,0.6026908150064683,0.4572675956958899,0.3756657107742728,0.3075253718005999
0.4886949623165411,0.3914455445544554,0.3601081405827576,0.5824914015477214,0.6365412163042062,0.3858342974998742,0.5081890500701919,0.5905573304934326,0.5991720569210865,0.4538719350855529,0.371204879603077,0.3028658964702879
0.4793335977786593,0.3857029702970296,0.3584860318413938,0.5895851246775581,0.6306810782653991,0.3815081241511142,0.4955545156761815,0.5786297479588215,0.5900129366106079,0.4463309225612982,0.3638763712503983,0.2929724899470223
0.4811582705275685,0.3872079207920792,0.3593872033643737,0.5879729148753224,0.6312019794244041,0.3828160370239952,0.4932147870846981,0.5744408945686902,0.5872703751617075,0.4443905450696771,0.3619645864627429,0.2909938086423693
0.4874256247520825,0.3916435643564355,0.3613697807149294,0.5828138435081686,0.6340669357989321,0.38643794959505,0.5028544688816097,0.5813276535321265,0.5926520051746441,0.4484917974951489,0.3656971186672129,0.2973128231314227
0.4880602935343118,0.3923960396039603,0.3620306398317813,0.5820614789337919,0.6339367105091809,0.3872428190552844,0.510715956948994,0.5869364572239971,0.5960155239327296,0.4519756570823778,0.368701351904957,0.3005680730197229
0.4803649345497818,0.3876435643564356,0.3606488434965455,0.5879191745485812,0.629118374788384,0.3836209064842296,0.5072531586335984,0.581966631167909,0.5919793014230271,0.4479185041453518,0.3656060812963721,0.2960362545477755
0.4743355811186038,0.3833663366336633,0.3587263442475217,0.5928632846087705,0.626253418413856,0.380099602595704,0.4970519419747309,0.5711750088746894,0.5841655886157826,0.4410389839477861,0.3583230916291137,0.2870364460330631
0.475684252280841,0.3851485148514851,0.3604085310904175,0.5911973344797937,0.6254720666753484,0.3819105588812314,0.4952737482452035,0.5694710685126021,0.5836481241914617,0.4396718998059622,0.3560016386726751,0.28505776472841
0.4867116223720746,0.3919207920792078,0.3623911084409733,0.5828675838349097,0.632504232321917,0.3870416016902259,0.5074403369209172,0.579765708200213,0.5910996119016817,0.4458899276768388,0.3625108106877873,0.2934831173804812
0.4882982943276478,0.3936633663366337,0.3637729047762091,0.5811478933791917,0.6322437817424144,0.388751949293224,0.5179223210107627,0.5878594249201278,0.596326002587322,0.4505203739636619,0.3675178660840275,0.3002489308738111
0.478936929789766,0.3883564356435642,0.3628116551516972,0.5879191745485812,0.6256022919650995,0.3849791236983751,0.5099672437997192,0.5813986510472133,0.59006468305304,0.4464191215381901,0.3631025535982521,0.2943767153890342
0.4737009123363745,0.3859009900990098,0.3630519675578251,0.5913585554600173,0.6210444068238051,0.3835202978017002,0.4975198876930276,0.5730919417820376,0.5834411384217335,0.4408625859940024,0.3578223860894897,0.2867811323163337
0.4772709242364141,0.3883168316831683,0.364073295283869,0.5885103181427342,0.6228675608803229,0.3854821671110217,0.4968647636874122,0.5740149094781682,0.5843208279430788,0.4408184865055565,0.3577768674040693,0.2863343333120571
0.486156287187624,0.3948514851485148,0.3671973565635326,0.5810404127257093,0.626774319572861,0.3909653403088686,0.5069723912026205,0.5865104721334754,0.59379042690815,0.4476539072146762,0.3643315581046019,0.2949511712516754
0.4948036493454978,0.4007920792079208,0.3696605587263443,0.5741079105760963,0.6312019794244041,0.3957442527290104,0.5095928872250818,0.5961661341853035,0.6010349288486416,0.4533868407126476,0.3707952114342937,0.3029935533286525
0.4913923046410155,0.4037623762376237,0.3767497747071193,0.5732480653482372,0.6206537309545513,0.4006237738316816,0.5027608797379504,0.5928292509762157,0.6011901681759378,0.4523725524783912,0.3697482816696253,0.3008872151656347
0.4856009520031734,0.4059009900990099,0.3843796936016821,0.5737854686156492,0.6076312019794244,0.4051511645455002,0.4938699110903135,0.5840965566205183,0.5973091849935316,0.4493296877756217,0.3660157494651554,0.296291568264505
0.4871082903609679,0.4132673267326732,0.3944127365575248,0.568250214961307,0.5981247558275817,0.4140047286080789,0.4914365933551707,0.5843805466808661,0.5998965071151358,0.451093667313459,0.3670626792298238,0.2973766515606051
0.4970249900833003,0.4240396039603959,0.4032442174827275,0.557609630266552,0.5966922776403176,0.4245686402736556,0.5086569957884886,0.6013489527866525,0.6121086675291073,0.4600899629564297,0.3756201920888524,0.307716857088147
0.50829036096787,0.4325544554455445,0.4076299188945629,0.5479901117798796,0.6011199374918609,0.4318124654157654,0.5191389798783341,0.6192403265885694,0.6259249676584734,0.4693508555300758,0.3842232236333014,0.3186315184783302
0.5082110273700913,0.4348118811881187,0.4111144487834184,0.5464853826311263,0.5972131787993228,0.4347301172091151,0.4890968647636874,0.6160454384096556,0.6260284605433376,0.4694390545069676,0.3837225180936774,0.3181208910448713
0.5064656882189608,0.4345346534653465,0.4120156203063983,0.547237747205503,0.5948691235838,0.4349313345741737,0.4427702386523162,0.5952431664891727,0.6186287192755497,0.4648086082201446,0.3794892803495834,0.3123763324184592
0.50710035700119,0.4367128712871286,0.4148392910784019,0.5455717970765263,0.5922646177887746,0.4374968559786709,0.4261113710809546,0.5809016684416045,0.6140232858990944,0.4632210266360909,0.3787154626974373,0.3133337588561946
0.5143197143990481,0.4453069306930693,0.4224692099729648,0.5372957867583835,0.5900507878630029,0.4460988983349263,0.4219934487599437,0.5743698970536031,0.6119534282018111,0.4647204092432527,0.3829487004415312,0.3220782536541776
0.5193970646568823,0.4509702970297029,0.4271553018924602,0.5317605331040413,0.5891392108347441,0.4516826802153026,0.416471689284043,0.56975505857295,0.6079689521345406,0.4637061210089963,0.3829942191269516,0.3254611604008425
0.5074970249900834,0.4460198019801979,0.4286572544307599,0.5391229578675838,0.5776793853366323,0.4491674631520699,0.4080486663547027,0.5547035853745119,0.5950840879689521,0.4538719350855529,0.3746642996950248,0.3170996361779536
0.4983736612455375,0.4425346534653465,0.4302192850705917,0.5445507308684436,0.5684333897642923,0.4476080285728658,0.3947590079550772,0.5320553780617678,0.5764553686934023,0.4409948844593401,0.3629204788565706,0.3036318376204761
0.4895676318921063,0.43809900990099,0.4302192850705917,0.5505696474634566,0.5612709988279724,0.4447909854620453,0.3951333645297145,0.5193468228611998,0.5644501940491591,0.4307638031398835,0.3543629659975419,0.2940575732431225
0.4907576358587862,0.4373069306930692,0.42805647341544,0.5506771281169389,0.5646568563615053,0.443382463906635,0.4071127749181095,0.5223997160099396,0.5629495472186287,0.4303228082554242,0.353998816514179,0.2945682006765813
0.500357001190004,0.4375049504950494,0.421147491739261,0.5473452278589854,0.5798932152624039,0.4406157251370793,0.4115114646700982,0.5257365992190274,0.5641397153945665,0.4316457929088022,0.3570030497519231,0.298972362290164
0.5025783419278065,0.4292277227722772,0.406848903574647,0.5521818572656921,0.5972131787993228,0.4293475526937975,0.40140383715489,0.5193468228611998,0.5583441138421733,0.4279855353677897,0.3545905594246438,0.2987170485734346
0.5064656882189608,0.4214653465346534,0.3921297686993091,0.5561586414445401,0.6163562963927594,0.4182805976155742,0.389985961628451,0.5121760738374157,0.5507373868046571,0.424413476803669,0.351495288816059,0.2969936809855109
0.5108290360967871,0.4208316831683168,0.3878642234905377,0.5550838349097162,0.6246907149368406,0.4160672065999296,0.3942910622367805,0.5129570465033724,0.5508926261319533,0.4246780737343446,0.3531794801766125,0.3003127593029935
0.5142403808012694,0.4228118811881188,0.3883448483027936,0.5525580395528805,0.6269045448626123,0.417576336837869,0.4116986429574168,0.5209087681931132,0.5550840879689521,0.4283383312753571,0.3573671992352861,0.3066956022212292
0.5067036890122968,0.4183366336633662,0.3872634424752178,0.5582007738607051,0.6219559838520641,0.414256250314402,0.4347215722976134,0.5304934327298545,0.5590168175937904,0.4293526195096137,0.3575947926623878,0.3043339503414821
0.4804442681475605,0.409108910891089,0.3931510964253529,0.5733018056749786,0.5939575465555411,0.4108858594496705,0.4523163313055685,0.5370252041178558,0.561914618369987,0.427059446110425,0.3519504756702626,0.2914406076466458
0.4548988496628322,0.4012673267326732,0.4006007810153199,0.5873280309544282,0.564917306941008,0.4089742944816137,0.4641085634066448,0.5347532836350728,0.5606209573091849,0.4230022931733991,0.344895079430106,0.2789302355269036
0.4479968266560889,0.3952475247524752,0.3967557825172725,0.5937231298366293,0.5634848287537438,0.4035414256250315,0.4799251286850725,0.5395101171458999,0.5637257438551099,0.4233991885694125,0.3436660749237561,0.2748452160592328
0.4518048393494646,0.3895049504950494,0.385100630820066,0.5963564058469475,0.5792420888136476,0.3950399919513053,0.4992980814225549,0.5556265530706425,0.5726261319534282,0.429793614394073,0.3486731303199963,0.2796323482479095
0.4546608488694963,0.381980198019802,0.371522979873836,0.600494411006019,0.5961713764813126,0.3845766889682579,0.5092185306504445,0.5650692225772098,0.5772833117723155,0.4321749867701534,0.3508125085347535,0.2788025786685389
0.4459341531138437,0.3702970297029703,0.3603484529888855,0.6113499570077385,0.6012501627816121,0.3725036470647417,0.5071595694899391,0.5607383741569045,0.5723156532988357,0.4263097548068441,0.3440757430925394,0.2666113486947086
0.4390321301071004,0.365069306930693,0.3577050165214779,0.6172076526225279,0.5983852064070843,0.3680768650334524,0.501544220870379,0.5540646077387291,0.5661578266494177,0.4208855177279942,0.3377031271336884,0.2572923980340844
0.4399841332804443,0.3653861386138614,0.35746470411535,0.616670249355116,0.5994270087250944,0.368127169374717,0.5028544688816097,0.5560525381611644,0.5670892626131953,0.4215029105662373,0.3386135008420957,0.2579945107550903
0.4464894882982944,0.3685148514851485,0.3572844698107539,0.6123710232158212,0.6048964708946477,0.3700890386840384,0.5197941038839494,0.5701810436634718,0.5772315653298835,0.4293085200211676,0.3454868223405708,0.2646964958192379
0.4485521618405395,0.3677227722772277,0.3544607990387504,0.6122098022355976,0.6097148066154446,0.3683786910810403,0.5375760411792232,0.5908413205537806,0.5914618369987062,0.4375992238490033,0.3504028403659702,0.2673134614157145
0.4402221340737803,0.3569108910891088,0.3444277560829078,0.6223667239896818,0.6137517905977341,0.357311736002817,0.540009358914366,0.6029818956336529,0.5989650711513583,0.4404656905979889,0.349629022713824,0.2597178783430139
0.4357794525981753,0.3512079207920792,0.3391408831480925,0.6277407566638006,0.6158353952337543,0.3514764324161175,0.5397285914833879,0.614980475683351,0.6082794307891332,0.4463750220497441,0.3504938777368109,0.2533988638539605
0.4508528361761206,0.367009900990099,0.3516972063682787,0.6119411006018917,0.6146633676259928,0.3667689521605714,0.5558259241927936,0.6528221512247071,0.645071151358344,0.4750837890280472,0.3737994446720378,0.2728027063253973
0.4751289170963904,0.397069306930693,0.3789125863622709,0.5832975064488392,0.605026696184399,0.3972533829669501,0.5771642489471221,0.7166489172878949,0.7187580853816299,0.5406597283471511,0.4358869315854158,0.3393119295334141
0.5136057120190402,0.4337029702970296,0.4053469510363472,0.5454105760963026,0.6080218778486781,0.4315609437094421,0.5693963500233973,0.7668441604543841,0.7991203104786545,0.6235667666255071,0.5218717283444854,0.4377353673326099
0.572312574375248,0.4832871287128713,0.4361069390207269,0.4918852106620808,0.6227373355905717,0.4759293727048644,0.4899391670566214,0.7564075257365992,0.8485899094437257,0.7231875110248721,0.6381719695935182,0.571009127465373
0.6503768345894487,0.5606336633663366,0.4943226194052267,0.4129406706792777,0.6237791379085819,0.5494743196337843,0.3632194665418811,0.6751863684771032,0.8389133247089262,0.8140324572234962,0.768583003322864,0.7307716857088148
0.7086870289567633,0.6398415841584159,0.5703214178431961,0.3394776440240756,0.5892694361244953,0.631571004577695,0.2575573233504913,0.5552715654952076,0.753842173350582,0.8232492503086962,0.8255723974691611,0.8294504372247399
0.7114637048790163,0.6696237623762376,0.6133974166416342,0.3183576956147894,0.5448626123193124,0.668494391065949,0.2040243331773513,0.4351437699680511,0.5793531694695989,0.691127182924678,0.7300286767718148,0.7787068360247653
0.6418088060293535,0.6347326732673266,0.6131571042355062,0.3655954428202924,0.4879541606980075,0.6462598722269732,0.1738886289190453,0.2775292864749734,0.3271410090556274,0.4293085200211676,0.4958805589694569,0.5865832641858684
0.4740182467274891,0.6167128712871286,0.7129468308801442,0.4346517626827171,0.2420888136476103,0.6765933900095578,0.1584464202152549,0.0699325523606673,0.0763260025873221,0.1427059446110424,0.2142109335882379,0.3359290227867492
0.361364537881793,0.5467722772277227,0.6921598077500751,0.5202601031814272,0.1721578330511784,0.6234720056340862,0.2942442676649508,0.1152289669861554,0.0570245795601552,0.0512436055741753,0.0725567845600619,0.1497414948618114
0.3330424434748116,0.4517623762376238,0.5694803244217482,0.5943142734307825,0.2819377523114988,0.511746063685296,0.5124941506785213,0.3468938587149449,0.2116946959896506,0.1361792203210442,0.1026901543083435,0.0952320163400778
0.3490678302261008,0.3978613861386138,0.4755782517272454,0.6254299226139295,0.3967964578721187,0.4382514210976407,0.631539541413196,0.5272985445509407,0.3536351875808537,0.2396366202152054,0.1771587236560608,0.1157209421076147
0.3676318921063071,0.392,0.4526284169420246,0.6231190885640584,0.4369058471155098,0.4248704663212435,0.6225549836218999,0.5569045083422081,0.4225097024579559,0.3018168989239724,0.2306431790249897,0.1542733133337588
0.3926219754065848,0.3921980198019801,0.4340042054671073,0.6145206362854686,0.4776663628076572,0.4172242064490165,0.5354234908750585,0.5392971246006389,0.4714100905562742,0.346136884812136,0.2712458464199553,0.1954426501563796
0.4160253867512892,0.3883168316831683,0.4103935115650345,0.6092540842648323,0.5223336371923427,0.404899642839177,0.473373888628919,0.5260205892793752,0.5055109961190167,0.373610866113953,0.2960535299740543,0.2209101934001404
0.432606108687029,0.3841980198019801,0.3915890657855212,0.6064058469475494,0.5564526631071754,0.3943860355148649,0.4782405240992045,0.5343982960596378,0.5317981888745148,0.393014641030164,0.3118940325003413,0.2359737026871768
0.4483934946449822,0.3808316831683168,0.3745268849504355,0.603396388650043,0.5878369579372313,0.3850797323809045,0.5106223678053345,0.5640042598509052,0.5601552393272962,0.413035808784618,0.3282352405662524,0.2526329227037722
0.4564855216184054,0.3745742574257425,0.3588465004505857,0.604847377472055,0.6115379606719624,0.3745661250565923,0.5327094057089377,0.5869364572239971,0.5791461836998706,0.4263538542952901,0.3394328371796622,0.2613774175017552
0.4500595001983341,0.3633267326732673,0.3466506458395915,0.6146818572656922,0.6193514780570386,0.3622918657880175,0.5310248011230697,0.5867944621938231,0.5812160413971539,0.425736461457047,0.3385224634712549,0.2551860598710666
0.4424434748115828,0.3562772277227722,0.3417242415139681,0.6220442820292348,0.618570126318531,0.3557523014236128,0.5250350959288722,0.579694710685126,0.5776972833117723,0.4225612982889397,0.3341071509854795,0.2479734473734601
0.4513288377627926,0.3582574257425742,0.3380594773205166,0.6176913155631986,0.6297695012371403,0.3555007797172896,0.5297145531118389,0.5845935392261271,0.5811125485122898,0.4255600635032632,0.3357913423460331,0.249377672815472
0.464736215787386,0.3634851485148514,0.3358365875638329,0.6095765262252794,0.643182706081521,0.3579153880979928,0.5457182966775853,0.5985800496982606,0.5908408796895213,0.4335420709119774,0.3438026309800173,0.2602923342056552
0.4665608885362952,0.3639603960396039,0.335175728446981,0.6086629406706793,0.6453965360072925,0.3579153880979928,0.5522695367337389,0.6046858359957401,0.5956015523932728,0.4375110248721114,0.3479903500386908,0.2631646135188613
0.4602142007140024,0.3599603960396039,0.3339140883148092,0.613499570077386,0.6414897773147545,0.3548468232808491,0.5443144595226954,0.5977990770323038,0.5921862871927555,0.433762568354207,0.3443033365196413,0.2579945107550903
0.4580721935739786,0.3577425742574256,0.3321718233703815,0.6157566638005159,0.6416200026045058,0.3526837366064691,0.5359850257370145,0.5894213702520412,0.586959896507115,0.4289557241136002,0.3400700987755473,0.25365417757069
0.4683855612852043,0.3619405940594059,0.3307299489336137,0.6094153052450558,0.6516473499153536,0.3547965189395844,0.5415067852129153,0.5925452609158679,0.5901681759379043,0.4318221908625859,0.3435750375529154,0.2574200548924491
0.4787782625942087,0.3679603960396039,0.3319915890657855,0.6017841788478074,0.6589399661414246,0.3591226922883445,0.5534861956013103,0.6021299254526091,0.5982923673997411,0.4388781090139353,0.3501752469388683,0.2661645496904321
0.4764775882586276,0.3687920792079208,0.3349954941423851,0.6020528804815133,0.6537309545513739,0.3609336485738719,0.5552643893308377,0.6036918707845226,0.6014489003880983,0.4409948844593401,0.3523601438390459,0.2696112848662794
0.4671955573185244,0.3645940594059405,0.335716431360769,0.608018056749785,0.6452663107175413,0.3585693445344333,0.5431913897987832,0.594675186368477,0.5953945666235446,0.4360116422649497,0.3473986071282261,0.2629092998021318
0.4572788575961921,0.3603168316831682,0.3366776809852808,0.6142519346517626,0.6361505404349524,0.3562553448362593,0.5344875994384651,0.5856585019524316,0.5900129366106079,0.4314693949550184,0.3436205562383358,0.2555052020169783
0.4657675525585085,0.3641980198019801,0.3360768999699609,0.6087704213241616,0.643703607240526,0.358468735851904,0.5397285914833879,0.5885694000709976,0.5915653298835705,0.4345563591462338,0.3455323410259911,0.2577391970383609
0.4765569218564062,0.3707722772277227,0.3379393211174527,0.6006556319862425,0.6506055475973433,0.3633985612958398,0.5513336452971455,0.5987220447284345,0.5995342820181111,0.441127182924678,0.3518594382994219,0.2679517457075381
0.4778262594208647,0.3726732673267326,0.3398618203664764,0.5989359415305244,0.6495637452793331,0.3654107349464259,0.5538605521759475,0.6014199503017393,0.6024838292367399,0.4441259481390016,0.3547726341663252,0.2733771621880385
0.4694962316541055,0.3682376237623762,0.3394412736557524,0.6047936371453139,0.643182706081521,0.3624427788118115,0.5416003743565746,0.5911963081292155,0.5950840879689521,0.439098606456165,0.3492193545450407,0.2665475202655262
0.46449821499405,0.3661782178217821,0.3401021327726043,0.6078568357695615,0.638364370360724,0.3613863876452537,0.5301824988301357,0.5826056088036918,0.5890815006468305,0.4341594637502204,0.3438481496654376,0.2585051381885491
0.4694962316541055,0.3689900990099009,0.3405827575848603,0.6042562338779021,0.6418804531840082,0.3633985612958398,0.5317735142723443,0.5838125665601703,0.5908408796895213,0.43579114482272,0.3469889389594428,0.2595902214846492
0.4788575961919873,0.3737425742574257,0.3407029137879243,0.5978611349957007,0.649433519989582,0.3664168217717189,0.5411324286382779,0.5938232161874334,0.5982923673997411,0.4425824660433938,0.3538622604579179,0.2696112848662794
0.4843316144387148,0.3761980198019802,0.3402823670772003,0.5943142734307825,0.6545123062898814,0.3678253433271291,0.5435657463734207,0.5973020944266951,0.6018111254851228,0.4454489327923795,0.3568209750102417,0.2742707601965915
0.4779055930186434,0.3721584158415841,0.3390207269450285,0.5992583834909716,0.6506055475973433,0.3647567785099854,0.5314927468413664,0.5887113951011715,0.5956015523932728,0.4412594813900158,0.3525422185807274,0.2664198634071615
0.4735422451408172,0.3689900990099009,0.3375187744067287,0.602858985382631,0.6486521682510743,0.3620906484229589,0.5206364061768834,0.5781327653532127,0.5894954721862871,0.4361439407302874,0.3475806818699075,0.2599731920597433
0.4777469258230861,0.3713663366336633,0.3379393211174527,0.5998495270851247,0.6515171246256022,0.363800996025957,0.5211043518951801,0.579765708200213,0.5918758085381629,0.4386135120832598,0.3499476535117665,0.2636114125231378
0.4875049583498612,0.3772277227722772,0.3394412736557524,0.5925408426483233,0.6580283891131657,0.368127169374717,0.531679925128685,0.5899893503727369,0.5992755498059508,0.4454489327923795,0.3576403113478082,0.2740154464798621
0.4898056326854423,0.379049504950495,0.3404626013817963,0.5905524505588994,0.6588097408516733,0.3696866039539212,0.5329901731399157,0.5927582534611289,0.6017076326002586,0.4475216087493384,0.3603259137876098,0.2777813238016212
0.4804442681475605,0.3748118811881188,0.3410633823971162,0.5965713671539123,0.6503450970178409,0.367271995573218,0.5210107627515208,0.5832445864394746,0.5957567917205691,0.4433321573469747,0.3561837134143565,0.272036765175209
0.4783022610075367,0.3726336633663366,0.3394412736557524,0.5988284608770421,0.6503450970178409,0.3652095175813672,0.5102480112306972,0.5753638622648207,0.59006468305304,0.4400246957135296,0.3527698120078292,0.2673772898448969
0.4848076160253868,0.377108910891089,0.3413036948032442,0.5935619088564058,0.6537309545513739,0.3688314301524221,0.5138043986897519,0.5799077032303869,0.59379042690815,0.4431998588816369,0.3556830078747325,0.272228250462756
0.4952796509321698,0.3826930693069306,0.3418443977170321,0.5862532244196044,0.6618049225159526,0.372604255747271,0.5229761347683668,0.5897053603123891,0.6016558861578266,0.4508731698712294,0.3630570349128317,0.2828875981362099
0.496628322094407,0.3822574257425742,0.3401622108741363,0.5860382631126397,0.6646698788904805,0.3716484732632426,0.5200748713149275,0.5910543130990414,0.6028978007761966,0.4529899453166343,0.3655150439255314,0.2874194166081573
0.4863149543831813,0.3776633663366336,0.3410033042955842,0.5927020636285469,0.6552936580283891,0.3690326475174807,0.5072531586335984,0.582392616258431,0.5975161707632599,0.4488886928911624,0.3625108106877873,0.2819301716984745
0.482427608092027,0.3751683168316831,0.3402222889756683,0.5956577815993122,0.6529496028128662,0.367121082549424,0.4951801591015441,0.5764998225062123,0.5934282018111253,0.4462427235844063,0.3607355819563931,0.2773345247973447
0.4882982943276478,0.3778613861386138,0.3398017422649444,0.5918959587274291,0.658158614402917,0.3686805171286282,0.4962096396817969,0.5808306709265176,0.5975161707632599,0.451137766801905,0.3647412262733852,0.2824407991319334
0.5032923443078144,0.3854257425742574,0.3399819765695404,0.5816315563198624,0.6703997916395363,0.3735600382312993,0.503509592887225,0.5911963081292155,0.6073997412677878,0.4614570470982536,0.3743456688970822,0.2950149996808578
0.5101943673145578,0.3879999999999999,0.3386001802343045,0.5776010318142735,0.677431957286105,0.374616429397857,0.5027608797379504,0.5942492012779552,0.6109702457956014,0.466528488269536,0.3802630980017296,0.3026744111827407
0.5060690202300675,0.3847524752475247,0.3367978371883448,0.5811478933791917,0.675999479098841,0.3717993862870365,0.48872250818905,0.5882854100106496,0.6082794307891332,0.4640589169165637,0.3789430561245391,0.3006319014489053
0.5055136850456169,0.3839207920792079,0.3358966656653649,0.5819002579535684,0.6766506055475973,0.3708939081442728,0.4775854000935891,0.5834575789847355,0.6080206985769728,0.4644117128241311,0.3798989485183667,0.3019084700325525
0.5178897262990877,0.3895445544554455,0.335115650345449,0.5739466895958727,0.687589529886704,0.3741133859852105,0.4793635938231165,0.5901313454029109,0.6154721862871927,0.4720850238137237,0.3873640129273067,0.3117380481266356
0.5334391114637049,0.3972673267326732,0.335115650345449,0.5634135855546002,0.7003516082823285,0.3790432114291463,0.4848853532990173,0.6031948881789138,0.6273221216041397,0.484565179043923,0.3996995766762256,0.3276313269930426
0.5394684648948831,0.3986930693069306,0.3326524481826374,0.5604041272570938,0.707904675087902,0.3788922984053524,0.4818905007019184,0.6104366347177849,0.6340491591203105,0.4920620920797318,0.4085302016477763,0.3393757579625965
0.539706465688219,0.3972277227722772,0.3302493241213577,0.5613177128116938,0.7107696314624299,0.3769807334372956,0.4656059897051941,0.6064607738729145,0.6328072445019405,0.4926353854295289,0.4093950566707633,0.3402693559711495
0.5402618008726696,0.3969900990099009,0.3295283869029738,0.5613177128116938,0.7120718843599426,0.3765279943659138,0.4490407112774917,0.6039758608448704,0.633842173350582,0.4958105485976362,0.4119441030543038,0.341609752983979
0.5501785005950021,0.4005148514851485,0.3273655752478221,0.5555137575236457,0.7224899075400443,0.3778862115800593,0.4473561066916237,0.612566560170394,0.643777490297542,0.5060416299170929,0.4232782557239747,0.3539924682453564
0.5601745339151131,0.4059009900990099,0.3279062781616101,0.5484737747205503,0.7300429743456179,0.3815081241511142,0.4525970987365466,0.627831025914093,0.6580077619663648,0.5198447698006703,0.4369793800355045,0.371928256845599
0.568345894486315,0.4098613861386138,0.3277861219585461,0.5430460017196904,0.7369449147024352,0.3839730368730821,0.4486663547028544,0.6363507277245296,0.6680465717981888,0.5297671547010054,0.4474031589967681,0.3845662858237059
0.5704879016263388,0.4103762376237623,0.3268849504355662,0.5419711951848667,0.7396796457872118,0.3839227325318174,0.4319138979878333,0.6340078097266596,0.6697024579560155,0.532765919915329,0.4518184714825435,0.3863534818408118
0.5733439111463705,0.4116039603960396,0.3265845599279062,0.5401440240756663,0.7424143768719884,0.3845766889682579,0.4157229761347683,0.632871849485268,0.6722897800776196,0.5361174810372199,0.4547771860348673,0.3896725601582944
0.5835779452598175,0.4184554455445544,0.3292279963953138,0.5320292347377472,0.7478838390415419,0.3900598621661049,0.4172204024333176,0.6445154419595314,0.682535575679172,0.5450696771917445,0.4641995539168828,0.4035233292908661
0.5969853232844111,0.4281980198019801,0.3337939321117453,0.5209049871023216,0.7538742023701003,0.3981085567684491,0.4268600842302292,0.660418885339013,0.696248382923674,0.5581672252601869,0.4779461969138331,0.4213952894619263
0.5982546608488696,0.433108910891089,0.3403424451787323,0.5171431642304385,0.7478838390415419,0.4039941646964133,0.4277023865231633,0.6678026269080581,0.7055627425614488,0.5667225260186981,0.4871409713687469,0.4323099508521095
0.5917493058310196,0.4326732673267326,0.3446079903875037,0.5196152192605331,0.7379867170204454,0.4055032949343528,0.4107627515208235,0.6627618033368832,0.7042690815006468,0.5660610336920091,0.4876416769083708,0.4330758920022978
0.5923839746132488,0.4333861386138613,0.3452087714028237,0.5189165950128977,0.7377262664409429,0.4062075557120578,0.3967243799719232,0.6582889598864039,0.7014747736093143,0.5652672428999823,0.4876416769083708,0.4330120635731154
0.5997619992066641,0.4395643564356435,0.3490537699008711,0.5122527944969905,0.7396796457872118,0.4117410332511696,0.3984089845577912,0.6673766418175364,0.7102716688227684,0.571529370259305,0.4949246665756293,0.4423310142337396
0.6095200317334392,0.4483168316831682,0.3548813457494743,0.5030094582975064,0.7413725745539784,0.4197394235122491,0.4073935423490874,0.6812211572594958,0.7220181112548512,0.5813635561827483,0.5050753334243707,0.4566924107997702
0.6101547005156684,0.4542178217821782,0.3633523580654851,0.4987639724849527,0.7327777054303946,0.4270335529956235,0.4109499298081421,0.6874689385871495,0.7264683053040103,0.584847415769977,0.5083981974600573,0.462373140997
0.5962713209044032,0.4528712871287129,0.3718233703814959,0.5044067067927772,0.7120718843599426,0.42969968308265,0.4047730463266261,0.6802981895633653,0.7195342820181112,0.5759834185923443,0.5001137967135508,0.4510116806025403
0.5859579531931774,0.4534653465346533,0.3805346951036347,0.507469905417025,0.6942310196640187,0.4337743347250867,0.4047730463266261,0.6721334753283634,0.7123932729624838,0.56681072499559,0.4894169056397651,0.4370332546116039
0.5842919476398255,0.457029702970297,0.3872033643736858,0.5056427343078247,0.6856361505404349,0.4388047688515518,0.4189985961628451,0.6739084132055378,0.7102716688227684,0.5617833833127536,0.4823615093996085,0.4296291568264504
0.5818326061086871,0.461069306930693,0.3951336737759087,0.5037618228718831,0.675087902070582,0.444690376779516,0.4423958820776789,0.6794462193823216,0.7089780077619663,0.5572852354912682,0.4775365287450498,0.4240760834875853
0.5684252280840937,0.4587722772277228,0.4018624211474917,0.509834479793637,0.656726136215653,0.4460485939936616,0.4583996256434253,0.6718494852680156,0.6998706338939198,0.5457311695184335,0.4652920023669716,0.4095870300631901
0.5489884966283222,0.4502574257425742,0.4036647641934515,0.52219475494411,0.6387550462299778,0.4413702902560491,0.458306036499766,0.6529641462548811,0.679379042690815,0.5262832951137767,0.444398925759024,0.3845662858237059
0.5312971043236812,0.4417029702970296,0.4041453890057074,0.5340176268271711,0.6237791379085819,0.4361386387645254,0.4589611605053813,0.6339368122115725,0.6599741267787839,0.5071882166166871,0.42519004051163,0.3611412523137805
0.5261404204680683,0.4388910891089108,0.4037248422949835,0.5376719690455718,0.6200026045057949,0.4342270737964686,0.4729995320542816,0.6273340433084842,0.6487451487710219,0.4962515434820955,0.4145386681232645,0.3490776791983149
0.5248710829036097,0.4388910891089108,0.4046860919194953,0.5380481513327601,0.6179189998697746,0.4346295085265858,0.4919981282171267,0.6249201277955272,0.6416558861578265,0.4895043217498676,0.4081205334789931,0.3423118657049849
0.5163030543435145,0.4344158415841583,0.4043857014118354,0.5440133276010318,0.6112775100924599,0.4316112480507068,0.4990173139915769,0.6148384806531771,0.6313583441138421,0.4788322455459516,0.3977422732031498,0.3315248611731665
0.4985323284410948,0.4241584158415841,0.4022829678582156,0.5569647463456578,0.5989061075660893,0.424216509884803,0.4912494150678521,0.5942492012779552,0.6122639068564036,0.4619862409596048,0.3804906914288314,0.3107167932597178
0.489408964696549,0.4171485148514851,0.3985581255632322,0.5648645743766122,0.595390024742805,0.4182302932743095,0.48591483387927,0.5789137380191693,0.5985510996119016,0.4499029811254189,0.3680185716236515,0.2943767153890342
0.4932169773899247,0.4184554455445544,0.3976569540402523,0.5626612209802235,0.5995572340148456,0.4186830323456914,0.4942442676649508,0.5787007454739084,0.5959637774902975,0.4467719174457575,0.3650143383859073,0.29290866151784
0.4953589845299485,0.4212277227722772,0.400240312406128,0.5600816852966467,0.5985154316968354,0.4215503797977765,0.5076275152082358,0.5845935392261271,0.5973609314359637,0.4485799964720408,0.3671992352860849,0.2975681368481521
0.4930583101943674,0.419128712871287,0.3988585160708922,0.5622850386930353,0.5981247558275817,0.4195885104884552,0.506036499766027,0.5804046858359957,0.5929107373868046,0.4446110425119068,0.3637398151941372,0.2941214016723048
0.4852042840142801,0.4135445544554455,0.3962751577050165,0.5687338779019776,0.594478447714546,0.4149605110921072,0.4957416939635002,0.5682641107561236,0.5826131953428201,0.4348650555653554,0.3548181528517456,0.2823131422735686
0.4797302657675527,0.4106930693069306,0.3960949234004205,0.5724957007738607,0.5901810131527542,0.4130992504653151,0.489845577912962,0.5588214412495562,0.5754204398447605,0.429132122067384,0.3489007237470982,0.274526073913321
0.4858389527965094,0.4142178217821782,0.3967557825172725,0.5680352536543422,0.594478447714546,0.4156144675285477,0.4972391202620496,0.5653532126375577,0.5782664941785252,0.4320426883048156,0.3517228822431608,0.2783557796642624
0.4938516461721539,0.4185742574257425,0.3973565635325923,0.5623925193465176,0.6003385857533532,0.4186327280044267,0.5070659803462798,0.5735179268725594,0.5843725743855109,0.4370259304992061,0.3565478628977195,0.2857598774494159
0.4890122967076557,0.4162772277227722,0.3975367978371883,0.5655631986242475,0.596301601771064,0.4172242064490165,0.5087505849321479,0.5717429889953851,0.5835963777490297,0.4354824484035985,0.3555919705038918,0.2851215931575923
0.4765569218564062,0.4099405940594058,0.3973565635325923,0.5740541702493551,0.5861440291704648,0.4131495548065798,0.4950865699578848,0.561803336883209,0.5751099611901681,0.4278091374140059,0.3479903500386908,0.2754835003510563
0.4707655692185641,0.4067722772277227,0.3969360168218684,0.5781921754084265,0.5819768198984242,0.4109361637909351,0.4858212447356106,0.5549165779197728,0.5694695989650711,0.4232668901040747,0.34289225727161,0.26935597114955
0.4782229274097581,0.4108514851485148,0.3974767197356563,0.572871883061049,0.5874462820679776,0.4137532069017556,0.4913430042115114,0.5581824636137735,0.5728331177231565,0.4271917445757628,0.3462151213072966,0.2742707601965915
0.4897262990876637,0.4164752475247524,0.3972964854310604,0.5651870163370593,0.5970829535095715,0.4172745107902812,0.502386523163313,0.5683351082712105,0.5796636481241915,0.4327041806315046,0.3521780690973644,0.2829514265653922
0.4879016263387545,0.4150099009900989,0.3964553920096125,0.5667992261392949,0.5965620523505665,0.4160169022586649,0.5006083294337856,0.5684061057862975,0.5802846054333763,0.4329246780737343,0.3527698120078292,0.2833982255696687
0.4802062673542245,0.4093069306930693,0.3936317212376089,0.5732480653482372,0.5931761948170334,0.4111876854972584,0.4900327562002807,0.5602413915512957,0.573816300129366,0.4278532369024518,0.3474896444990668,0.2747813876300504
0.4781435938119794,0.4074455445544553,0.3923700811054371,0.5752364574376613,0.5929157442375309,0.4094773378942603,0.4849789424426766,0.5557685481008164,0.5704010349288485,0.4246780737343446,0.3444398925759024,0.27044105444565
0.4859976199920667,0.4105742574257425,0.3911685190747972,0.5704535683576956,0.6005990363328558,0.4109361637909351,0.4905942910622367,0.5624423145189918,0.5758861578266493,0.4295731169518433,0.3500386908826072,0.2765047552179741
0.4959936533121777,0.415089108910891,0.3904475818564134,0.5640047291487533,0.6097148066154446,0.413551989536697,0.5011698642957416,0.5726659566915158,0.584424320827943,0.4366731345916387,0.3569120123810824,0.2853130784451395
0.4955176517255058,0.4145346534653465,0.3899669570441574,0.5645421324161651,0.6097148066154446,0.4129986417827858,0.5010762751520823,0.5744408945686902,0.5857697283311771,0.439142705944611,0.3585962037416359,0.2872279313206102
0.4876636255454185,0.4094653465346535,0.3882246920997296,0.5706685296646604,0.6052871467639015,0.4090245988228783,0.4899391670566214,0.5667021654242101,0.5799223803363518,0.4353060504498147,0.3549091902225864,0.2809727452607391
0.4870289567631893,0.4069306930693069,0.3848603184139381,0.5726031814273431,0.6082823284281808,0.4060063383469993,0.4817033224145999,0.5604543840965566,0.5764036222509702,0.4328805785852884,0.3525877372661477,0.2761856130720623
0.4965489884966284,0.4100990099009901,0.3824571943526584,0.5672291487532244,0.6187003516082823,0.4070124251722924,0.48872250818905,0.5686900958466453,0.5823544631306597,0.4376874228258952,0.3570030497519231,0.2818025148401097
0.5098770329234431,0.4165148514851484,0.3820967257434665,0.5583082545141874,0.630160177106394,0.4109361637909351,0.5005147402901263,0.5813276535321265,0.5912548512289779,0.4453166343270417,0.3646046702171241,0.2919512350801047
0.5120190400634669,0.4171485148514851,0.3814358666266146,0.5571797076526225,0.6326344576116681,0.4110367724734645,0.5022929340196537,0.5823216187433441,0.5932212160413971,0.4463750220497441,0.3662433428922572,0.2932916320929342
0.5069416898056327,0.4132673267326732,0.3793932111745269,0.5615326741186587,0.6305508529756478,0.4077669902912621,0.4905942910622367,0.5733049343272986,0.585666235446313,0.441127182924678,0.3614183622376986,0.2851854215867747
0.5054343514478382,0.4118415841584157,0.378371883448483,0.5629836629406707,0.6305508529756478,0.4064087730771165,0.4846981750116986,0.5696130635427761,0.5831824062095731,0.4393632033868406,0.3586872411124767,0.2802068041105508
0.5115430384767949,0.4149306930693069,0.378431961550015,0.5588456577815992,0.6354994139861961,0.4083706423864379,0.4913430042115114,0.5757898473553424,0.5879430789133246,0.4437290527429881,0.3623287359461058,0.2851854215867747
0.5208250694168981,0.420039603960396,0.3791528987683989,0.5522355975924333,0.6422711290532621,0.4119422506162282,0.5027608797379504,0.5862974795882144,0.5956015523932728,0.4499029811254189,0.3691110200737403,0.2939299163847577
0.5205870686235622,0.4192475247524752,0.378131571042355,0.5528804815133276,0.643182706081521,0.4109864681321998,0.503790360318203,0.5858004969826056,0.5965847347994825,0.4496383841947433,0.3698393190404661,0.2947596859641284
0.5117017056723523,0.4137821782178217,0.3765695404025233,0.5595980223559759,0.6375830186222163,0.4068615121484983,0.4904071127749181,0.5745828895988639,0.5889780077619663,0.4432880578585288,0.3630570349128317,0.2862705048828748
0.5097976993256644,0.4118811881188118,0.3750675878642235,0.5615326741186587,0.6375830186222163,0.4050505558629709,0.4851661207299952,0.5685481008164713,0.5845278137128073,0.4396718998059622,0.3581865355728526,0.2795685198187272
0.5170963903213011,0.4145742574257425,0.3736857915289877,0.5571797076526225,0.6451360854277901,0.4061572513707933,0.4914365933551707,0.5736599219027334,0.5875808538163001,0.4420973716704885,0.3608721380126541,0.2833982255696687
0.519476398254661,0.4173069306930692,0.3760288374887353,0.5545464316423043,0.644615184268785,0.4089239901403491,0.5043518951801591,0.5835285764998225,0.5941009055627425,0.4479185041453518,0.3665619736901998,0.2912491223590986
0.5151923839746133,0.415089108910891,0.3759687593872034,0.5575021496130697,0.6410991014455006,0.4074651642436742,0.5047262517547964,0.5832445864394746,0.5942043984476066,0.4480949020991356,0.3661978242068369,0.2899087253462692
0.5045616818722729,0.409069306930693,0.3748272754580955,0.5651870163370593,0.6336762599296782,0.4031892952361789,0.4919981282171267,0.5705360312389066,0.5854592496765847,0.4394514023637325,0.3580499795165915,0.2782281228058977
0.4977389924633082,0.4053861386138613,0.3744067287473716,0.5699699054170249,0.6284672483396275,0.4006740781729463,0.4843238184370613,0.5626553070642527,0.5786804657179818,0.4340712647733286,0.3529063680640903,0.2713346524542031
0.5058310194367315,0.4094653465346535,0.3744668068489035,0.5644883920894239,0.6349785128271911,0.4032899039187081,0.4940570893776321,0.5701810436634718,0.5831824062095731,0.4373787264067736,0.3557285265601529,0.2757388140677858
0.5125743752479176,0.4133465346534653,0.3751877440672874,0.5595442820292347,0.639796848547988,0.4060566426882639,0.5055685540477304,0.5798367057153,0.5898059508408796,0.4424942670665019,0.3615093996085393,0.2846747941533158
0.5063070210234034,0.4111683168316831,0.3766896966055872,0.5631448839208942,0.6330251334809219,0.4053020775692942,0.5034160037435657,0.5780617678381257,0.5873221216041397,0.441083083436232,0.3598252082479857,0.2831429118529392
0.4947243157477192,0.4065346534653465,0.378431961550015,0.5702386070507308,0.6216955332725614,0.4030383822123849,0.4913430042115114,0.5662051828186013,0.5789909443725743,0.4338507673310989,0.3531794801766125,0.2728027063253973
0.4944069813566045,0.4057425742574257,0.3774707119255032,0.5708834909716252,0.6223466597213178,0.4021832084108858,0.4871314927468413,0.5610933617323394,0.5752134540750322,0.4300141118363026,0.3499021348263462,0.2682708878534499
0.5019436731455772,0.4099801980198019,0.3781916491438871,0.5654557179707653,0.6278161218908712,0.4051511645455002,0.4958352831071595,0.5679091231806886,0.5793014230271668,0.4334979714235314,0.3532705175474532,0.2733771621880385
0.5095596985323285,0.4142178217821782,0.3789125863622709,0.5599742046431642,0.6332855840604245,0.4081191206801147,0.5043518951801591,0.5757898473553424,0.58509702457956,0.4392750044099487,0.3578223860894897,0.2796323482479095
0.5074176913923047,0.4127920792079207,0.378371883448483,0.5616938950988822,0.6321135564526631,0.4070124251722924,0.5034160037435657,0.5723819666311679,0.5838033635187581,0.4372464279414358,0.3550457462788474,0.2775898385140741
0.4984529948433162,0.4095445544554455,0.3801742264944427,0.5669067067927773,0.6228675608803229,0.4057045122994114,0.4919981282171267,0.5610933617323394,0.5768175937904269,0.4313811959781266,0.348263462151213,0.2696112848662794
0.5011503371677906,0.4116831683168316,0.3813757885250826,0.5645958727429062,0.6237791379085819,0.4075657729262035,0.4864763687412259,0.5581114660986866,0.5744890038809831,0.4295290174633973,0.3470799763302836,0.266866662411438
0.5166997223324078,0.4197227722772277,0.3817963352358066,0.5538478073946689,0.6360203151452011,0.4128477287589918,0.4924660739354234,0.569542066027689,0.5817852522639068,0.4355706473804903,0.353498110974555,0.2748452160592328
0.5340737802459342,0.431089108910891,0.385881646139982,0.5402515047291487,0.6459174371662977,0.4218019015040998,0.5013570425830604,0.5850195243166489,0.5936869340232859,0.445184335861704,0.3622376985752651,0.2874194166081573
0.5388337961126537,0.4385346534653465,0.3935716431360769,0.5335877042132416,0.6413595520250032,0.4297499874239147,0.5044454843238184,0.5892083777067804,0.5993272962483829,0.4483594990298111,0.3655605626109518,0.291121465500734
0.5325664418881397,0.4396831683168317,0.3999999999999999,0.5349312123817712,0.6293788253678864,0.433170682629911,0.4925596630790828,0.5790557330493432,0.5956015523932728,0.4436408537660962,0.3613728435522782,0.2844833088657688
0.5297897659658867,0.4441584158415841,0.4089516371282667,0.532835339638865,0.6173980987107696,0.4397102469943156,0.4849789424426766,0.5735889243876464,0.5942043984476066,0.4421414711589345,0.3586417224270563,0.2803982893980978
0.5405791352637843,0.4532277227722772,0.4145389005707419,0.5230008598452278,0.6201328297955463,0.4478092459379244,0.5013570425830604,0.5912673056443024,0.6068305304010349,0.4509613688481212,0.3656971186672129,0.2904831812089104
0.5562078540261801,0.464,0.4190447581856413,0.5104256233877902,0.6280765724703736,0.4565622013179737,0.5112774918109498,0.6150514731984381,0.624424320827943,0.4640589169165637,0.3767581592243616,0.3045254356290292
0.5599365331217772,0.4683168316831682,0.4228296785821568,0.5062338779019776,0.6270347701523635,0.4608883746667337,0.4846045858680392,0.6155484558040469,0.6279948253557567,0.4677632739460222,0.3812189903955573,0.3076530286589646
0.5500991669972234,0.4649504950495049,0.4251126464403725,0.5118766122098022,0.6164865216825107,0.4596810704763821,0.4427702386523162,0.5928292509762157,0.618163001293661,0.4619862409596048,0.3758933042013747,0.3012063573115465
0.5443078143593812,0.4647128712871287,0.4291378792430159,0.5139724849527085,0.6073707513999218,0.4612405050555863,0.4225549836218998,0.5730919417820376,0.6079172056921086,0.4562974069500792,0.3713414356593381,0.298078764281611
0.5518445061483539,0.4733861386138613,0.4365875638329828,0.5055352536543422,0.605547597343404,0.4698425474118416,0.4149742629854936,0.5649982250621228,0.6051228978007761,0.4566061033692008,0.3745732623241841,0.3050998914916703
0.5603332011106704,0.480079207920792,0.4403124061279664,0.4981190885640584,0.608412553717932,0.4756778509985411,0.4188114178755264,0.5636492722754703,0.6048124191461837,0.4581936849532545,0.3772588647639856,0.3130784451394651
0.5500991669972234,0.4764356435643563,0.44253529588465,0.5040842648323302,0.5976038546685766,0.4742693294431309,0.4147870846981749,0.55193468228612,0.5936351875808538,0.4503439760098782,0.3712503982884974,0.3070785727963234
0.5341531138437129,0.4702574257425742,0.4452388104535896,0.5136500429922615,0.5815861440291704,0.4715025906735751,0.3963500233972858,0.5263755768548101,0.5731435963777489,0.4348650555653554,0.3579134234603304,0.2905470096380927
0.5234430781435938,0.4647128712871287,0.4449384199459297,0.5210124677558039,0.5731215001953379,0.4678806781025202,0.3904539073467477,0.5094071707490238,0.5578783958602845,0.4221203034044804,0.3463061586781373,0.2770792110806153
0.5312971043236812,0.4653465346534653,0.4398918594172424,0.5179492691315564,0.5851022268524547,0.4661200261582574,0.4012166588675713,0.511395101171459,0.5574126778783958,0.4222526018698183,0.3463516773635577,0.2790578923852684
0.5422451408171362,0.4668910891089109,0.4340042054671073,0.5131663800515907,0.6003385857533532,0.4646612002615826,0.4108563406644829,0.518991835285765,0.5623803363518757,0.4273240430411006,0.3523146251536255,0.2901002106338162
0.5453391511305038,0.4595643564356435,0.4205467107239411,0.5170894239036973,0.6175283240005208,0.4543991146435936,0.4055217594759008,0.5176428824991125,0.559379042690815,0.4266625507144116,0.3531339614911921,0.2925895193719282
0.5454184847282825,0.4506138613861385,0.406908981676179,0.5231620808254515,0.6323740070321655,0.4429800291765179,0.3950397753860551,0.5079872204472843,0.5509961190168176,0.4211060151702239,0.3495379853429832,0.2888236420501691
0.5490678302261008,0.4494653465346534,0.4024031240612796,0.5226784178847806,0.6401875244172418,0.4403642034307561,0.3941974730931211,0.5054313099041534,0.5470116429495472,0.4187246427941435,0.3478537939824297,0.2888236420501691
0.5563665212217375,0.4525148514851484,0.4014418744367678,0.518164230438521,0.6473499153535616,0.4418733336686956,0.4111371080954608,0.5150159744408945,0.5517723156532988,0.421767507496913,0.3504483590513906,0.2952703133975872
0.5511305037683459,0.4495445544554455,0.4009011715229799,0.5219797936371453,0.6435733819507748,0.4397605513355802,0.4393074403369209,0.5304224352147675,0.5596377749029754,0.4254718645263714,0.3523146251536255,0.2949511712516754
0.5264577548591829,0.4418613861386138,0.4079903875037549,0.5355223559759243,0.6155749446542518,0.4378992907087882,0.4591483387927,0.5407880724174654,0.5641914618369986,0.4254718645263714,0.3490827984887796,0.28505776472841
0.4979769932566442,0.4316435643564356,0.414058275758486,0.5521281169389509,0.5856231280114598,0.4339252477488807,0.4659803462798314,0.533972310969116,0.5589650711513583,0.4187687422825895,0.3402521735172288,0.2680155741367204
0.48639428798096,0.4223366336633663,0.4087113247221388,0.5623387790197765,0.5819768198984242,0.4257759444640072,0.4762751520823584,0.5346112886048988,0.5575679172056921,0.4158581760451578,0.3365196413127588,0.2591434224803727
0.4953589845299485,0.419049504950495,0.3969360168218684,0.5615326741186587,0.602161739809871,0.418733336686956,0.4948993916705661,0.5501597444089457,0.5668822768434669,0.4231345916387369,0.3416177340798397,0.2642496968149613
0.5051963506545023,0.4139801980198019,0.3817963352358066,0.5616401547721409,0.6266440942831097,0.4091755118466723,0.5120262049602246,0.5635782747603835,0.575006468305304,0.4287352266713706,0.3459420091947744,0.2691644858620028
0.4975803252677509,0.4034059405940594,0.371522979873836,0.571420894239037,0.6314624300039068,0.3981588611097137,0.5155825924192794,0.5649982250621228,0.5734540750323415,0.425736461457047,0.3431653693841321,0.2620795302227611
0.4840936136453789,0.395049504950495,0.3690597777110243,0.5816315563198624,0.6231280114598254,0.3918205141103677,0.5065980346279831,0.5581824636137735,0.5668822768434669,0.4192979361439407,0.3358823797168737,0.2519946384119487
0.4812376041253471,0.393069306930693,0.3682787623911084,0.5839423903697335,0.6215653079828102,0.3902610795311635,0.5030416471689284,0.554419595314164,0.5645019404915912,0.4174898571176574,0.3335154080750148,0.2475904767983659
0.4871082903609679,0.3949306930693069,0.3665965755482127,0.5807179707652622,0.628206797760125,0.3907138186025454,0.514927468413664,0.5664181753638622,0.5726778783958603,0.4231786911271828,0.3383403887295734,0.252760579562137
0.489408964696549,0.3933861386138614,0.3625112646440372,0.5809329320722271,0.6345878369579372,0.3880476885155189,0.5368273280299485,0.5896343627973021,0.5889262613195343,0.4335861704004232,0.3453502662843097,0.258122167613455
0.4880602935343118,0.3857425742574256,0.3519375187744067,0.5865756663800515,0.6448756348482875,0.378791689722823,0.545624707533926,0.6080937167199147,0.6002069857697283,0.4394514023637325,0.3486276116345759,0.253845662858237
0.4836176120587069,0.3821386138613861,0.349834785220787,0.5905524505588994,0.6434431566610235,0.37562251622315,0.5465605989705193,0.6206602768903088,0.6116429495472187,0.4469924148879872,0.3504938777368109,0.2489308738111955
0.4890916303054344,0.394019801980198,0.3637128266746771,0.5806104901117799,0.6328949081911707,0.3889531666582826,0.5572297613476835,0.6541001064962726,0.647554980595084,0.4747309931204797,0.3730711457053119,0.2657815791153379
0.5221737405791353,0.4266138613861386,0.3881045358966657,0.5473452278589854,0.6336762599296782,0.4198400321947783,0.5794103883949462,0.7195598154064607,0.7225355756791719,0.5402628329511378,0.4364331558104601,0.3326099444692665
0.5689805632685443,0.4662970297029702,0.4128567137278462,0.5045141874462598,0.6452663107175413,0.4554555058101514,0.5752924660739354,0.776925807596734,0.8062613195342819,0.6270947257011819,0.5256952979197961,0.4353098870236803
0.6322094406981358,0.5180198019801979,0.4434364674076299,0.4480331040412726,0.6640187524417241,0.50108154333719,0.4968647636874122,0.7718139865104722,0.8603880983182405,0.7314341153642617,0.6488233419818835,0.5774557988127912
0.7068623562078541,0.594019801980198,0.5021928507059177,0.3711844368013757,0.6615444719364499,0.5739725338296695,0.3654656059897052,0.6838480653177139,0.8493143596377748,0.8199858881636972,0.7784150393736629,0.737792812918874
0.7573185243950813,0.6687128712871285,0.5772904776209071,0.3034178847807395,0.6216955332725614,0.6528497409326425,0.2586803930744033,0.5557685481008164,0.7556015523932729,0.8191920973716704,0.8256179161545816,0.826259015765622
0.7518445061483539,0.6904950495049504,0.6144788224692099,0.2904664660361135,0.5767678083083735,0.6822274762311987,0.2115114646700982,0.4293929712460064,0.5716946959896507,0.6745898747574527,0.7160544403477627,0.7596859641284227
0.6774295914319716,0.6571881188118811,0.6203063983178132,0.3382953568357695,0.509441333506967,0.6635142612807485,0.185212915301825,0.2659566915157969,0.3152910737386804,0.4091991532898217,0.4746233328781464,0.5611795493712899
0.5027370091233638,0.6384158415841583,0.7241213577650946,0.4101999140154772,0.253548639145722,0.6950550832536847,0.1826860084230229,0.0712815051473198,0.0765847347994825,0.1339742458987475,0.2006918840183895,0.3156954107359417
0.3905593018643396,0.5643564356435643,0.6967257434665064,0.4984415305245055,0.1911707253548638,0.6365511343628955,0.3201684604585867,0.1270855520056797,0.0664941785252263,0.0522137943199858,0.0685511402430697,0.1341035297121337
0.3599365331217771,0.467089108910891,0.5723640732952838,0.5748065348237318,0.3008204193254329,0.52271241008099,0.5251286850725315,0.3527866524671637,0.2159896507115136,0.1358264244134767,0.0994583276434976,0.0795940511904002
0.3761205870686235,0.4142970297029703,0.4800240312406127,0.6051160791057609,0.4142466466987888,0.4505256803662156,0.6352831071595695,0.526588569400071,0.3510996119016817,0.2367260539777738,0.173699303564113,0.1012318886832194
0.4026973423244744,0.4127524752475247,0.4575548212676479,0.5972162510748066,0.4603463992707383,0.4401629860656975,0.6252690687880206,0.5549165779197728,0.4209573091849934,0.2991268301287704,0.2290500250352769,0.1458479606816876
0.4326854422848076,0.4165940594059406,0.4406127966356263,0.5844260533104041,0.5033207448886573,0.4354846823280849,0.5408516612072999,0.5400780972665956,0.4729624838292366,0.3462691832774739,0.2718375893304201,0.1907831748260675
0.4462514875049584,0.409108910891089,0.4190447581856413,0.5849097162510748,0.5378304466727438,0.4217012928215705,0.4762751520823584,0.5228257011004614,0.5032858990944372,0.3708766978303051,0.2937320770176156,0.2142082083359928
0.4619595398651329,0.4032079207920791,0.3981976569540402,0.5836199484092863,0.5732517254850892,0.409225816187937,0.4790828263921384,0.5276535321263756,0.526261319534282,0.3868848121361791,0.3075242386999863,0.2258888108763643
0.4825069416898057,0.4006336633663366,0.378672273956143,0.57835339638865,0.6112775100924599,0.39941646964133,0.5091249415067851,0.5576854810081647,0.5539456662354462,0.4065972834715116,0.3235923346533751,0.2411438054509478
0.4969456564855216,0.3979009900990098,0.3636527485731451,0.5753439380911436,0.6394061726787341,0.3913677750389858,0.5372016846045858,0.5865104721334754,0.577490297542044,0.4229140941965073,0.337657608448268,0.25365417757069
