Lead I,Lead II,Lead III,aVR,aVL,aVF,V1,V2,V3,V4,V5,V6
0.2585034013605442,0.2290379523389232,0.1785046728971964,0.7580645161290324,0.3118066561014262,0.2110770340970593,0.7948910593538692,0.7388984897437824,0.4511856710393542,0.2428592904389657,0.1900934579439252,0.2079718897551334
0.2372448979591836,0.2071932921447484,0.1565420560747664,0.7796526054590571,0.2912044374009508,0.1890672920801011,0.780365639869772,0.7252235329476294,0.4409687184661957,0.2305321707757066,0.1745794392523364,0.1911716262215877
0.2192460317460317,0.1870035304501323,0.1303738317757007,0.7990074441687345,0.277337559429477,0.1674183655060436,0.7639619333834209,0.7118491246524907,0.4275353178607466,0.2139206253758268,0.1545794392523364,0.17206544416383
0.2084750566893423,0.1732127096204766,0.1074766355140187,0.8114143920595535,0.2717908082408874,0.151722893739852,0.753067868770348,0.7029078067473138,0.4174445005045408,0.2024203247143716,0.1401869158878504,0.1607554628307895
0.2009637188208616,0.1614077669902912,0.0822429906542055,0.8213399503722085,0.2721870047543581,0.1372902760238137,0.7478086651640371,0.6982493049815914,0.4122729566094853,0.1958809380637402,0.1322429906542055,0.1535082903261227
0.1838151927437641,0.1441968225948808,0.0654205607476637,0.8384615384615385,0.2551505546751189,0.1199711347645678,0.7410468319559228,0.6912615523330077,0.4049571140262361,0.1872369212266987,0.1213084112149532,0.1439551992972438
0.1643990929705215,0.1266548984995587,0.0551401869158878,0.8568238213399505,0.2321711568938192,0.1035540321125743,0.7296518908089156,0.6811180404237733,0.3953708375378405,0.1767137702946482,0.1079439252336448,0.1307785220160316
0.1590136054421768,0.1222418358340688,0.0546728971962616,0.861786600496278,0.225039619651347,0.0997654699621143,0.7231404958677685,0.676083853031783,0.3913975782038345,0.1719031870114251,0.1022429906542056,0.1238607664433951
0.1642573696145124,0.1269858781994704,0.0570093457943923,0.8566997518610422,0.231378763866878,0.1042756629983762,0.7231404958677685,0.6766849500338117,0.3922174571140262,0.1726548406494287,0.1025233644859813,0.1244097946634456
0.1710600907029478,0.132171226831421,0.0570093457943923,0.8508684863523573,0.2408874801901743,0.1084250405917373,0.7302779864763336,0.6814185889247877,0.3960645812310797,0.1773150932050511,0.1080373831775701,0.1314373558800922
0.1696428571428571,0.1313989408649603,0.058411214953271,0.8518610421836229,0.2385103011093502,0.1080642251488363,0.7325319308790382,0.6838981140581561,0.397893541876892,0.1793445580276608,0.1105607476635514,0.1340726913363346
0.1636904761904762,0.1249999999999999,0.0509345794392522,0.8580645161290323,0.2329635499207606,0.1013891394551686,0.7277736038066616,0.6799158464197159,0.3952447023208879,0.1756614552014431,0.1062616822429906,0.1290216317118699
0.1598639455782312,0.1227934686672551,0.0542056074766354,0.8610421836228288,0.2266244057052298,0.1003066931264658,0.7226396193338342,0.6759335787812758,0.3918390514631684,0.1712266987372218,0.1009345794392523,0.1229823212913143
0.1642573696145124,0.1272065313327448,0.0579439252336448,0.8565756823821341,0.2309825673534072,0.1046364784412772,0.7232657150012521,0.6765346757833044,0.3923435923309787,0.1719031870114251,0.1018691588785046,0.1238607664433951
0.1709183673469388,0.1325022065313327,0.058411214953271,0.8507444168734493,0.2400950871632329,0.1089662637560886,0.7287753568745304,0.6812683146742805,0.3963168516649848,0.1763379434756464,0.1071028037383177,0.1313275502360821
0.1697845804988662,0.1316195939982347,0.0588785046728973,0.8517369727047146,0.2385103011093502,0.1082446328702868,0.7320310543451038,0.683372154181381,0.3980827447023208,0.1791942273000601,0.1100934579439252,0.1341824969803448
0.1629818594104308,0.125441306266549,0.0551401869158878,0.8581885856079404,0.2301901743264658,0.102651993505322,0.728274480340596,0.6797655721692087,0.3954969727547931,0.1755111244738424,0.1059813084112149,0.1289118260678599
0.1597222222222222,0.1220211827007943,0.0514018691588784,0.8615384615384617,0.2274167987321711,0.0990438390763124,0.7232657150012521,0.6754827560297544,0.3917759838546922,0.1715273601924233,0.1007476635514018,0.123750960799385
0.1638321995464852,0.1262135922330097,0.055607476635514,0.8573200992555832,0.231378763866878,0.1033736243911238,0.7240170298021538,0.6769103614095724,0.3923435923309787,0.1723541791942273,0.1016822429906541,0.1255078511035467
0.171485260770975,0.1325022065313327,0.0570093457943923,0.8504962779156328,0.2416798732171157,0.1086054483131878,0.7292762334084647,0.6814937260500412,0.3968213925327951,0.1771647624774503,0.1076635514018691,0.132315801032173
0.1720521541950113,0.1318402471315092,0.0523364485981308,0.8506203473945411,0.2440570522979397,0.1073425942630344,0.7322814926120711,0.6832970170561274,0.3982719475277497,0.1787432351172579,0.1103738317757009,0.1344021082683649
0.1639739229024943,0.1262135922330097,0.0551401869158878,0.8573200992555832,0.2317749603803486,0.1031932166696733,0.7287753568745304,0.6799909835449696,0.3952447023208879,0.1753607937462417,0.1062616822429906,0.1291314373558801
0.1598639455782312,0.1235657546337157,0.0574766355140186,0.8606699751861043,0.225039619651347,0.1013891394551686,0.722389181066867,0.6759335787812758,0.391523713420787,0.1712266987372218,0.1009345794392523,0.1232019325793346
0.1648242630385487,0.1270962047661077,0.0560747663551403,0.8564516129032258,0.23256735340729,0.1040952552769259,0.7220135236664161,0.6763844015327972,0.3922174571140262,0.1720535177390258,0.1010280373831775,0.1247392115954759
0.1700680272108843,0.1311782877316858,0.0560747663551403,0.8518610421836229,0.2396988906497623,0.1075230019844849,0.728274480340596,0.6810429032985198,0.3960015136226034,0.1767137702946482,0.106822429906542,0.1309981333040518
0.1624149659863945,0.1206972639011473,0.0369158878504673,0.861166253101737,0.2373217115689381,0.0950748692044018,0.7316553969446532,0.68209482305207,0.3926589303733602,0.1764131088394468,0.1018691588785046,0.1242999890194356
0.1181972789115646,0.0840688437775816,0.0271028037383177,0.9011166253101738,0.1794770206022187,0.0633231102291177,0.7192587027297771,0.6642121872417162,0.3718466195761856,0.1540138304269392,0.069626168224299,0.0877347095640715
0.0463435374149659,0.0334289496910856,0.0500000000000001,0.9610421836228288,0.0693343898573692,0.0263395273317698,0.7042324067117455,0.6391915245322713,0.3464303733602422,0.1151533373421527,0.0291588785046728,0.0352476117272427
0.0086451247165532,0.004964695498676,0.0532710280373833,0.9935483870967742,0.0154516640253565,0.00378856215046,0.7240170298021538,0.6434743406717258,0.3570257315842583,0.1059831629585087,0.0023364485981308,0.0038431975403535
0.0460600907029478,0.0366284201235657,0.0644859813084112,0.9593052109181144,0.0629952456418383,0.0317517589752841,0.7966441272226396,0.7025321211210459,0.4357971745711402,0.167919422730006,0.0349532710280373,0.0360162512353134
0.1668083900226757,0.1468446601941747,0.1327102803738319,0.8444168734491315,0.2028526148969889,0.135125383366408,0.8746556473829201,0.7872116612818393,0.5752396569122099,0.3113349368610944,0.149626168224299,0.1491160645657186
0.3371598639455782,0.3131067961165049,0.2757009345794393,0.6764267990074443,0.3803486529318541,0.2985747790005412,0.9313799148509893,0.8736193553234652,0.7194752774974773,0.4991731809981959,0.3376635514018691,0.3182167563412759
0.5500283446712018,0.527802294792586,0.4831775700934579,0.4625310173697271,0.5899366085578446,0.5141620061338625,0.9722013523666416,0.9495829889548424,0.8566473259334005,0.701668671076368,0.5523364485981308,0.5283847589766114
0.7684240362811792,0.7582744924977936,0.739252336448598,0.2373449131513647,0.7868462757527733,0.7519393830055927,0.9889807162534434,0.993613344353445,0.9754667003027244,0.9050661455201444,0.795233644859813,0.7564510815855935
0.9539399092970522,0.950132391879965,0.9401869158878502,0.0482630272952854,0.9607765451664024,0.9476817607793612,0.9148509892311544,0.940566533924412,0.9794399596367304,0.9982711966325916,0.9750467289719628,0.9485011529592622
0.9940476190476192,0.9930494263018534,0.989252336448598,0.0065756823821338,0.996038034865293,0.9922424679776296,0.724267468069121,0.7762416409948154,0.8165363269424822,0.905817799158148,0.9751401869158878,0.9949489403755354
0.8798185941043084,0.8766548984995586,0.8733644859813082,0.1220843672456576,0.885499207606973,0.8747970413133682,0.4648134234911094,0.5287399504094973,0.5575176589303733,0.7079073962717979,0.8198130841121495,0.8805314593170088
0.6969954648526077,0.6844660194174759,0.6621495327102802,0.3100496277915633,0.7194928684627574,0.6767093631607433,0.2134986225895316,0.2474265534600646,0.2838042381432896,0.468129885748647,0.6126168224299064,0.6856264411990776
0.4991496598639456,0.4757281553398059,0.430841121495327,0.5141439205955336,0.5412044374009508,0.4614829514703228,0.0290508389681942,0.0414756931399804,0.0640136226034308,0.2475947083583884,0.3681308411214952,0.4737015482595805
0.3071145124716553,0.2693071491615181,0.1892523364485981,0.7141439205955336,0.3748019017432646,0.246076132058452,0.0267968945654895,0.0147268765497032,0.0059283551967709,0.0791491280817799,0.1803738317757009,0.2680355770286592
0.1821145124716553,0.138018534863195,0.0457943925233644,0.8426799007444169,0.2610935023771791,0.1111311564134945,0.1840721262208865,0.1335186715756255,0.0734106962663975,0.0103728202044497,0.0738317757009345,0.1417590864170418
0.1113945578231292,0.073477493380406,0.0051401869158877,0.9100496277915632,0.1794770206022187,0.0503337542846833,0.3668920611069371,0.3022766548951837,0.1798688193743693,0.0179645219482862,0.0319626168224299,0.077522784671132
0.0734126984126984,0.049757281553398,0.0299065420560746,0.9399503722084368,0.1160855784469096,0.0357207288471947,0.5249186075632356,0.4540536479074311,0.2727043390514631,0.0629134095009019,0.0241121495327102,0.051718458328758
0.0916950113378684,0.065864960282436,0.0378504672897197,0.9229528535980148,0.1382725832012677,0.0505141620061338,0.6267217630853994,0.56690961003832,0.3330600403632694,0.1134996993385448,0.0423364485981308,0.0648951356099703
0.1456916099773242,0.1042586054721976,0.0224299065420562,0.8776674937965262,0.2198890649762281,0.0788381742738589,0.6948409717004759,0.6389661131565106,0.3723511604439959,0.151458208057727,0.0763551401869158,0.1023388602174151
0.1672335600907029,0.1247793468667255,0.0383177570093456,0.8566997518610422,0.2432646592709983,0.0986830236334114,0.7262709742048584,0.6749567961529792,0.3921543895055499,0.1732561635598316,0.1015887850467289,0.1275941583397386
0.1625566893424036,0.1244483671668137,0.0523364485981308,0.8589330024813897,0.2309825673534072,0.1012087317337181,0.7287753568745304,0.6799909835449696,0.3948032290615539,0.1758117859290439,0.105607476635514,0.1291314373558801
0.159297052154195,0.122352162400706,0.0542056074766354,0.8615384615384617,0.2258320126782884,0.0997654699621143,0.7233909341347358,0.6757833045307686,0.3909561049445005,0.1712266987372218,0.1011214953271028,0.1235313495113649
0.1638321995464852,0.1266548984995587,0.0574766355140186,0.8570719602977668,0.2305863708399366,0.1040952552769259,0.7233909341347358,0.6760087159065293,0.3914606458123107,0.1718280216476247,0.1017757009345794,0.1236411551553749
0.1706349206349206,0.132171226831421,0.058411214953271,0.8511166253101737,0.2396988906497623,0.1086054483131878,0.7283996994740797,0.681343451799534,0.3956861755802219,0.1770144317498496,0.1074766355140186,0.1308883276600417
0.1702097505668934,0.1305163283318623,0.0532710280373833,0.8521091811414393,0.2412836767036449,0.1062601479343316,0.7325319308790382,0.6838229769329026,0.3976412714429868,0.1795700541190619,0.1103738317757009,0.1338530800483144
0.1635487528344671,0.1252206531332744,0.0523364485981308,0.8580645161290323,0.23256735340729,0.1017499548980696,0.7292762334084647,0.6802163949207303,0.3950554994954591,0.1765634395670475,0.1065420560747663,0.1294608542879103
0.1605725623582766,0.1224624889673433,0.0504672897196259,0.8609181141439206,0.2290015847860538,0.0992242467977629,0.7231404958677685,0.6755578931550079,0.3914606458123107,0.1715273601924233,0.1015887850467289,0.1241901833754254
0.1639739229024943,0.1264342453662842,0.0560747663551403,0.857196029776675,0.231378763866878,0.1035540321125743,0.7233909341347358,0.6759335787812758,0.3919021190716447,0.1721286831028262,0.1016822429906541,0.1245196003074558
0.1712018140589569,0.1315092674315975,0.0537383177570091,0.8511166253101737,0.242472266244057,0.1073425942630344,0.729526671675432,0.6806672176722519,0.3955600403632693,0.1765634395670475,0.106822429906542,0.1313275502360821
0.1709183673469388,0.1306266548984996,0.0504672897196259,0.8517369727047146,0.2436608557844691,0.1058993324914306,0.7324067117455547,0.6835224284318882,0.3978304742684157,0.1788184004810583,0.1099065420560747,0.1348413308444054
0.1631235827664399,0.1247793468667255,0.0518691588785046,0.858560794044665,0.2321711568938192,0.1013891394551686,0.7299023290758828,0.6805920805469982,0.3951816347124116,0.1753607937462417,0.1064485981308411,0.1299000768639508
0.159297052154195,0.1218005295675198,0.0523364485981308,0.8619106699751862,0.226228209191759,0.0990438390763124,0.7240170298021538,0.6760087159065293,0.3916498486377396,0.1714521948286229,0.101214953271028,0.123750960799385
0.1641156462585034,0.1264342453662842,0.055607476635514,0.857196029776675,0.2317749603803486,0.1033736243911238,0.7231404958677685,0.6765346757833044,0.3920913218970736,0.1718280216476247,0.1015887850467289,0.1247392115954759
0.1697845804988662,0.1319505736981465,0.0598130841121493,0.8514888337468983,0.2381141045958795,0.1087858560346383,0.7294014525419483,0.6819445488015629,0.3965691220988899,0.1771647624774503,0.1076635514018691,0.1315471615241023
0.1707766439909297,0.1315092674315975,0.0551401869158878,0.8513647642679901,0.2412836767036449,0.1075230019844849,0.7340345604808415,0.6843489368096776,0.3989656912209888,0.1795700541190619,0.1105607476635514,0.1348413308444054
0.1642573696145124,0.1257722859664606,0.0523364485981308,0.8574441687344915,0.2333597464342313,0.102291178062421,0.728274480340596,0.6801412577954767,0.3948032290615539,0.1755862898376428,0.1058878504672897,0.1291314373558801
0.1591553287981859,0.1216902030008826,0.0514018691588784,0.8620347394540944,0.2266244057052298,0.0988634313548619,0.7228900576008014,0.675332481779247,0.3907038345105953,0.1711515333734215,0.1003738317757009,0.1235313495113649
0.1646825396825396,0.1257722859664606,0.0509345794392522,0.8573200992555832,0.2345483359746434,0.1021107703409705,0.724267468069121,0.6769103614095724,0.3918390514631684,0.1719783523752255,0.1017757009345794,0.1247392115954759
0.171485260770975,0.131288614298323,0.0518691588785046,0.8512406947890819,0.2436608557844691,0.1066209633772324,0.7294014525419483,0.6810429032985198,0.3959384460141271,0.1764882742032471,0.1073831775700934,0.131217744592072
0.1700680272108843,0.1310679611650485,0.0551401869158878,0.8518610421836229,0.2404912836767035,0.1071621865415839,0.7319058352116202,0.6835224284318882,0.397893541876892,0.1792693926638605,0.1106542056074766,0.1341824969803448
0.1635487528344671,0.1261032656663724,0.0560747663551403,0.8575682382133996,0.2305863708399366,0.1033736243911238,0.7277736038066616,0.6796904350439552,0.3950554994954591,0.1756614552014431,0.1060747663551401,0.1279235752717689
0.1595804988662131,0.1229037952338922,0.0551401869158878,0.8610421836228288,0.2254358161648177,0.1004871008479163,0.7218883045329325,0.6754076189045006,0.3915867810292633,0.1710012026458208,0.1008411214953271,0.1227627100032941
0.1628401360544217,0.1264342453662842,0.0598130841121493,0.8576923076923078,0.2282091917591124,0.1042756629983762,0.7237665915351865,0.6765346757833044,0.3922174571140262,0.1719783523752255,0.1014953271028037,0.1239705720874052
0.1704931972789115,0.1325022065313327,0.0602803738317755,0.8508684863523573,0.2385103011093502,0.1093270791989896,0.728900576008014,0.6814185889247877,0.3958123107971745,0.17708959711365,0.1073831775700934,0.1315471615241023
0.1702097505668934,0.1309576345984112,0.0542056074766354,0.8519851116625311,0.2408874801901743,0.1068013710986829,0.7322814926120711,0.683747839807649,0.3981458123107971,0.1792693926638605,0.1103738317757009,0.1339628856923246
0.1635487528344671,0.1252206531332744,0.0523364485981308,0.8580645161290323,0.23256735340729,0.1017499548980696,0.7280240420736288,0.6801412577954767,0.3954339051463168,0.1758869512928442,0.1058878504672897,0.1290216317118699
0.1607142857142857,0.1224624889673433,0.0504672897196259,0.8607940446650124,0.2293977812995245,0.0992242467977629,0.7231404958677685,0.6754827560297544,0.3915867810292633,0.1713770294648226,0.1010280373831775,0.1235313495113649
0.1651077097505669,0.1262135922330097,0.0514018691588784,0.8568238213399505,0.2349445324881141,0.1024715857838715,0.7241422489356374,0.6768352242843189,0.392406659939455,0.1722790138304269,0.1019626168224299,0.1247392115954759
0.1723356009070294,0.1322815533980582,0.0532710280373833,0.8502481389578164,0.2440570522979397,0.1077034097059354,0.7305284247433007,0.6831467428056202,0.3978304742684157,0.1784425736620565,0.1087850467289719,0.131217744592072
0.1801303854875283,0.1386804942630186,0.0546728971962616,0.8433002481389579,0.2543581616481775,0.1132960490709002,0.7362885048835461,0.690660455330979,0.4080474268415741,0.190018039687312,0.1174766355140186,0.1396727791808499
0.1893424036281179,0.1467343336275375,0.0579439252336448,0.8347394540942928,0.2662440570522979,0.1205123579289193,0.7414224893563737,0.6973476594785484,0.4224268415741674,0.2028713168971737,0.1263551401869158,0.1464807291094762
0.2019557823129251,0.1596425419240952,0.0714953271028038,0.8219602977667495,0.2781299524564183,0.1336821215948043,0.7446781868269472,0.705237057630175,0.4369954591321897,0.2167769092002405,0.1359813084112149,0.1528494564620621
0.2229308390022675,0.1795013239187996,0.0864485981308412,0.8016129032258065,0.3007131537242472,0.1528053400685548,0.7555722514400199,0.7181606431737921,0.4566094853683147,0.2353427540589296,0.1510280373831775,0.1666849676073349
0.2473072562358276,0.2015666372462488,0.0995327102803736,0.7784119106699753,0.329635499207607,0.1733718203139094,0.7707237665915352,0.7365692388609212,0.4806382441977799,0.2608238123872519,0.1728971962616822,0.1864499835291533
0.2655895691609977,0.2197705207413945,0.1163551401869159,0.7602977667493797,0.3478605388272583,0.1915930001804076,0.7847483095416979,0.7521977609136674,0.5023335015136225,0.2828472639807576,0.1900934579439252,0.2035796639947293
0.2738095238095238,0.2295895851721094,0.130841121495327,0.7511166253101738,0.3530110935023772,0.2022370557459858,0.7913849236163286,0.7615899015703659,0.5190464177598384,0.2980306674684305,0.2010280373831775,0.2126935324475677
0.2871315192743764,0.2440423654015887,0.1481308411214951,0.7370967741935485,0.3645007923930269,0.2175717120692764,0.797145003756574,0.7708317679765572,0.5356331987891019,0.313965724594107,0.2110280373831775,0.2205995388162951
0.3083900226757369,0.264783759929391,0.1658878504672898,0.7162531017369728,0.3866877971473851,0.23777737687173,0.808915602304032,0.7851078217747388,0.5549949545913219,0.3338845460012026,0.2285981308411215,0.2349840781816185
0.3310657596371882,0.2870697263901148,0.1850467289719624,0.6937965260545906,0.410459587955626,0.2597871188886885,0.8240671174555472,0.8024644977083176,0.5775100908173562,0.3581629585087192,0.24803738317757,0.2542000658833864
0.3460884353741496,0.3007502206531333,0.1934579439252337,0.6794044665012408,0.4278922345483359,0.2725960671116724,0.8339594290007513,0.8148621233751596,0.5974394550958627,0.3774804570054119,0.2635514018691589,0.26880421653673
0.3554421768707483,0.3096866725507502,0.2009345794392522,0.6703473945409429,0.4374009508716323,0.2814360454627457,0.8385925369396443,0.8217747388984897,0.611125126135217,0.3898827420324714,0.2725233644859813,0.2760513890413967
0.3659297052154195,0.3198367166813768,0.2093457943925231,0.6600496277915633,0.448890649762282,0.2911780624210716,0.8415977961432506,0.8289879029228342,0.6232341069626639,0.4016085387853277,0.2806542056074766,0.2814318655978917
0.3809523809523809,0.3358340688437776,0.2275700934579436,0.6444168734491316,0.4619651347068145,0.3079559805159661,0.847983971950914,0.8392816890825757,0.637991927346115,0.4170174383644017,0.2925233644859812,0.2907653453387503
0.3988095238095238,0.3517210944395411,0.2355140186915887,0.6277915632754343,0.4837559429477019,0.3223885982320042,0.8608815426997245,0.8524306860019536,0.6544525731584258,0.4330276608538785,0.3081308411214953,0.3061381355001647
0.4090136054421769,0.360657546337158,0.2401869158878503,0.6182382133995038,0.4960380348652932,0.3305069456972759,0.871274730778863,0.8616725524081449,0.6676337033299696,0.4468580877931449,0.318411214953271,0.3186559789173163
0.4121315192743764,0.3627537511032657,0.238785046728972,0.61575682382134,0.5007923930269413,0.3319502074688796,0.8715251690458301,0.8639266661657525,0.67255297679112,0.4523451593505712,0.3214018691588785,0.3195344240693971
0.4121315192743764,0.3641879964695499,0.2448598130841121,0.6148883374689827,0.4984152139461172,0.3342955078477358,0.8696468820435762,0.8640769404162596,0.6762739656912209,0.4548256163559832,0.3223364485981307,0.3193148127813769
0.4185090702947845,0.3720211827007944,0.2570093457943925,0.6076923076923078,0.5019809825673534,0.3431354861988093,0.870022539444027,0.866556465549628,0.6813824419778002,0.4594858689116055,0.3264485981308411,0.3223893708136597
0.425453514739229,0.3785304501323919,0.261682242990654,0.6009925558312655,0.509904912836767,0.3492693487281256,0.875907838717756,0.8721917499436471,0.6864278506559032,0.46459711365003,0.3325233644859812,0.3297463489623366
0.4248866213151927,0.3784201235657546,0.2630841121495327,0.6012406947890819,0.5083201267828842,0.3496301641710264,0.8785374405209115,0.8739199038244796,0.6883198789101916,0.4669272399278412,0.3348598130841121,0.3321620731305589
0.4175170068027211,0.3711385701676964,0.2565420560747663,0.608560794044665,0.5007923930269413,0.3424138553130073,0.8757826195842725,0.8706138703133217,0.683779011099899,0.4621918220084185,0.3298130841121495,0.3275502360821346
0.4122732426303855,0.3633053839364519,0.2406542056074765,0.6153846153846154,0.5,0.3328522460761321,0.8697721011770598,0.8637763919152454,0.6750126135216952,0.4530968129885748,0.3213084112149532,0.3184363676292961
0.4115646258503401,0.3616504854368932,0.235981308411215,0.6165012406947892,0.501188589540412,0.3306873534187262,0.8660155271725519,0.8598692614020588,0.6689581231079716,0.4482110643415514,0.3163551401869158,0.3137147249368617
0.4067460317460318,0.3583406884377758,0.2378504672897195,0.6204714640198512,0.4936608557844691,0.32834205303987,0.8665164037064863,0.8586670673980014,0.6641019172552977,0.4427991581479254,0.3153271028037383,0.3147029757329526
0.3979591836734694,0.3488526037069727,0.2266355140186916,0.6297766749379653,0.4861331220285261,0.3182392206386433,0.8625093914350113,0.8536328800060109,0.6541372351160443,0.432501503307276,0.3098130841121495,0.3074558032282859
0.3809523809523809,0.3326345984112975,0.2144859813084112,0.6462779156327544,0.4675118858954041,0.3027241565939021,0.8524918607563235,0.8416860770906904,0.6388748738647829,0.4176187612748046,0.2949532710280373,0.294608542879104
0.3645124716553288,0.3168578993821712,0.2009345794392522,0.6624069478908189,0.4504754358161648,0.287209092549161,0.8397195091409968,0.8268840634157337,0.6210267406659938,0.398977751052315,0.2781308411214953,0.2792357527176896
0.3535997732426303,0.3079214474845543,0.1995327102803739,0.6722084367245658,0.4358161648177495,0.279631968248241,0.8314550463310794,0.8166654143812457,0.6054490413723511,0.3840198436560433,0.2662616822429906,0.2691336334687603
0.3438208616780045,0.2984333627537511,0.1915887850467288,0.6817617866004964,0.4251188589540411,0.2704311744542667,0.8294515401953418,0.810954992861973,0.5925201816347123,0.3719182200841852,0.2595327102803738,0.2637531569122653
0.3278061224489796,0.2834289496910857,0.1808411214953271,0.6971464019851117,0.4072900158478605,0.2559985567382284,0.8233158026546455,0.8023142234578104,0.5761856710393541,0.3562838244137102,0.2483177570093457,0.2551883166794773
0.3044217687074829,0.2607016769638128,0.1616822429906541,0.7202233250620348,0.3831220285261489,0.2336279992783691,0.8102930127723516,0.786159741528289,0.5551210898082745,0.3336590499098016,0.2299065420560747,0.2381684418579114
0.284297052154195,0.2409532215357458,0.144392523364486,0.7400744416873449,0.3621236133122029,0.2141439653617174,0.7955171550212872,0.7687279284694567,0.5325428859737639,0.3110342754058929,0.2095327102803738,0.2191720654441638
0.270266439909297,0.2270520741394528,0.1317757009345794,0.7540942928039703,0.3478605388272583,0.2004329785314811,0.7853744052091159,0.7555789315500788,0.5127396569122098,0.2911906193625977,0.1957943925233644,0.2057757768749313
0.2627551020408163,0.2174536628420123,0.1158878504672896,0.7627791563275435,0.3442947702060221,0.1894281075230019,0.7801152016028048,0.7478398076489593,0.4970358224016145,0.2773601924233313,0.1859813084112149,0.1986384100142747
0.2427721088435374,0.1974845542806708,0.0971962616822429,0.7827543424317619,0.3240887480190174,0.1695832581634493,0.7724768344603056,0.7365692388609212,0.4789354187689202,0.2596211665664462,0.1732710280373831,0.1879872625452948
0.217828798185941,0.1754192409532216,0.085981308411215,0.8060794044665013,0.2939778129952456,0.1493775933609958,0.7580766341096918,0.7192877000525959,0.4559157416750756,0.2355682501503307,0.1533644859813084,0.1694301087075875
0.1971371882086167,0.1561120917917034,0.0728971962616821,0.8259305210918114,0.2706022187004754,0.1311564134944976,0.743175557225144,0.7032083552483283,0.4340943491422804,0.2136199639206253,0.1343925233644859,0.1508729548698803
0.1866496598639455,0.1443071491615181,0.0570093457943923,0.8372208436724567,0.2626782884310618,0.1183474652715136,0.7352867518156774,0.6923886092118116,0.4165615539858728,0.1961815995189416,0.1202803738317756,0.1403316130449105
0.1763038548752834,0.1368049426301853,0.0593457943925235,0.8459057071960298,0.2472266244057052,0.1125744181850982,0.7315301778111696,0.6866781876925389,0.4033173562058526,0.1846061334936861,0.1134579439252336,0.1353903590644559
0.1704931972789115,0.1313989408649603,0.055607476635514,0.8516129032258065,0.2408874801901743,0.1075230019844849,0.7331580265464563,0.6838981140581561,0.3980196770938446,0.1794948887552615,0.1114953271028037,0.1340726913363346
0.1635487528344671,0.1251103265666372,0.0518691588785046,0.8581885856079404,0.23256735340729,0.1015695471766191,0.7283996994740797,0.6797655721692087,0.3943617558022199,0.1746843054720384,0.1057009345794392,0.1281431865597891
0.1595804988662131,0.1222418358340688,0.0523364485981308,0.8615384615384617,0.2266244057052298,0.0994046545192134,0.7230152767342849,0.6757833045307686,0.3912083753784056,0.1707005411906193,0.1014018691588785,0.1225430987152739
0.1652494331065759,0.1270962047661077,0.0546728971962616,0.8562034739454095,0.233755942947702,0.1039148475554753,0.7236413724017029,0.676985498534826,0.3924697275479313,0.1720535177390258,0.1027102803738317,0.1246294059514659
0.1723356009070294,0.132171226831421,0.0528037383177571,0.8503722084367246,0.2444532488114104,0.1077034097059354,0.7299023290758828,0.6818694116763092,0.3963799192734611,0.1765634395670475,0.1074766355140186,0.131217744592072
0.1707766439909297,0.1316195939982347,0.0551401869158878,0.8512406947890819,0.2412836767036449,0.1077034097059354,0.7329075882794891,0.6840483883086633,0.3982088799192734,0.1786680697534576,0.1095327102803738,0.1337432744043043
0.1628401360544217,0.1253309796999117,0.0551401869158878,0.8583126550868487,0.2301901743264658,0.1024715857838715,0.7294014525419483,0.6803666691712374,0.3949924318869828,0.1753607937462417,0.1069158878504672,0.1296804655759306
0.159297052154195,0.1221315092674315,0.0532710280373833,0.8616625310173698,0.2258320126782884,0.0995850622406638,0.7236413724017029,0.6757833045307686,0.391082240161453,0.1710763680096212,0.101214953271028,0.1233117382233446
0.1638321995464852,0.1259929390997352,0.0546728971962616,0.8574441687344915,0.2317749603803486,0.1028324012267725,0.724267468069121,0.6768352242843189,0.3921543895055499,0.1720535177390258,0.1017757009345794,0.1244097946634456
0.1707766439909297,0.1311782877316858,0.0537383177570091,0.8516129032258065,0.2420760697305863,0.1069817788201334,0.7297771099423992,0.681193177549027,0.3960645812310797,0.1767137702946482,0.1075700934579439,0.1307785220160316
0.1696428571428571,0.1315092674315975,0.0588785046728973,0.8518610421836229,0.2381141045958795,0.1082446328702868,0.7320310543451038,0.6836727026823952,0.3977674066599394,0.1785177390258568,0.1101869158878504,0.1335236631162841
0.1628401360544217,0.1253309796999117,0.0551401869158878,0.8583126550868487,0.2301901743264658,0.1024715857838715,0.7283996994740797,0.6799909835449696,0.3946770938446014,0.1750601322910402,0.105607476635514,0.1297902712199407
0.1597222222222222,0.1219108561341571,0.0509345794392522,0.8615384615384617,0.2278129952456418,0.0988634313548619,0.7231404958677685,0.6757833045307686,0.3916498486377396,0.1713770294648226,0.1001869158878504,0.1244097946634456
0.1638321995464852,0.1264342453662842,0.0565420560747661,0.8573200992555832,0.2309825673534072,0.1037344398340248,0.724267468069121,0.6772109099105867,0.392406659939455,0.1722790138304269,0.1015887850467289,0.1253980454595366
0.1703514739229024,0.1322815533980582,0.0598130841121493,0.8511166253101737,0.2389064976228209,0.1089662637560886,0.7305284247433007,0.6818694116763092,0.3961907164480323,0.1767137702946482,0.1077570093457943,0.1318765784561326
0.1696428571428571,0.1319505736981465,0.0607476635514018,0.8516129032258065,0.2373217115689381,0.1089662637560886,0.7330328074129727,0.683747839807649,0.3978304742684157,0.1787432351172579,0.1101869158878504,0.1350609421324256
0.1628401360544217,0.1259929390997352,0.0579439252336448,0.8579404466501241,0.2290015847860538,0.1035540321125743,0.7273979464062108,0.6796152979187017,0.3943617558022199,0.1749849669272399,0.1055140186915887,0.1292412429998902
0.159297052154195,0.1226831421006178,0.055607476635514,0.8612903225806452,0.225039619651347,0.1004871008479163,0.7220135236664161,0.6756330302802614,0.3907038345105953,0.1710012026458208,0.1008411214953271,0.1230921269353244
0.1643990929705215,0.1264342453662842,0.0542056074766354,0.8569478908188586,0.2329635499207606,0.1031932166696733,0.7233909341347358,0.6767600871590653,0.3915867810292633,0.171677690920024,0.1017757009345794,0.1249588228834962
0.1702097505668934,0.1323918799646954,0.0607476635514018,0.8511166253101737,0.2381141045958795,0.1093270791989896,0.728900576008014,0.6816440003005484,0.3958123107971745,0.1767137702946482,0.1071028037383177,0.1311079389480619
0.1702097505668934,0.1316195939982347,0.0574766355140186,0.8516129032258065,0.2393026941362915,0.1080642251488363,0.7329075882794891,0.6840483883086633,0.3977043390514631,0.1791942273000601,0.1100934579439252,0.1350609421324256
0.1626984126984127,0.1252206531332744,0.0551401869158878,0.8584367245657568,0.2297939778129952,0.1024715857838715,0.7285249186075632,0.6801412577954767,0.3948032290615539,0.1755862898376428,0.1061682242990654,0.1302294937959811
0.1588718820861678,0.1215798764342453,0.0523364485981308,0.8621588089330026,0.2258320126782884,0.0988634313548619,0.7222639619333834,0.675332481779247,0.3912714429868819,0.1712266987372218,0.1005607476635514,0.1229823212913143
0.1646825396825396,0.1264342453662842,0.0537383177570091,0.8568238213399505,0.2333597464342313,0.1031932166696733,0.7235161532682193,0.6768352242843189,0.3922174571140262,0.1719031870114251,0.1020560747663551,0.1241901833754254
0.1707766439909297,0.1327228596646072,0.0607476635514018,0.8506203473945411,0.2389064976228209,0.1095074869204401,0.7302779864763336,0.6818694116763092,0.3958753784056508,0.1771647624774503,0.1077570093457943,0.1316569671681124
0.169501133786848,0.1315092674315975,0.0588785046728973,0.8518610421836229,0.2381141045958795,0.1082446328702868,0.7327823691460055,0.683372154181381,0.3976412714429868,0.1785929043896572,0.1106542056074766,0.1339628856923246
0.1625566893424036,0.1248896734333627,0.0542056074766354,0.8586848635235733,0.2301901743264658,0.10193036261952,0.7294014525419483,0.6799158464197159,0.3948032290615539,0.1749849669272399,0.1064485981308411,0.128033380915779
0.1597222222222222,0.1219108561341571,0.0509345794392522,0.8616625310173698,0.2274167987321711,0.0988634313548619,0.7232657150012521,0.6756330302802614,0.391523713420787,0.1707757065544197,0.1013084112149532,0.1219940704952234
0.1645408163265306,0.1262135922330097,0.0528037383177571,0.8570719602977668,0.2333597464342313,0.102651993505322,0.7238918106686701,0.6765346757833044,0.3923435923309787,0.1719031870114251,0.1023364485981308,0.1241901833754254
0.171343537414966,0.1322815533980582,0.0565420560747661,0.8506203473945411,0.2416798732171157,0.1084250405917373,0.7309040821437515,0.6818694116763092,0.3962537840565086,0.1775405892964522,0.1083177570093457,0.1313275502360821
0.1709183673469388,0.1319505736981465,0.0565420560747661,0.8511166253101737,0.2408874801901743,0.1080642251488363,0.7330328074129727,0.6839732511834097,0.3980827447023208,0.1790438965724594,0.1105607476635514,0.134511913912375
0.163265306122449,0.1256619593998235,0.0551401869158878,0.8579404466501241,0.2309825673534072,0.102651993505322,0.7283996994740797,0.6799909835449696,0.3949924318869828,0.1759621166566446,0.105607476635514,0.1292412429998902
0.1597222222222222,0.1230141218005295,0.055607476635514,0.8610421836228288,0.2254358161648177,0.1006675085693668,0.7233909341347358,0.6759335787812758,0.3913975782038345,0.171677690920024,0.1007476635514018,0.1232019325793346
0.1649659863945578,0.1267652250661959,0.0542056074766354,0.8565756823821341,0.2333597464342313,0.1035540321125743,0.7235161532682193,0.6767600871590653,0.3920282542885973,0.171677690920024,0.1018691588785046,0.1241901833754254
0.1706349206349206,0.132171226831421,0.058411214953271,0.8511166253101737,0.2396988906497623,0.1086054483131878,0.729526671675432,0.6818694116763092,0.3956231079717456,0.1763379434756464,0.1073831775700934,0.1307785220160316
0.1692176870748299,0.131288614298323,0.0593457943925235,0.8521091811414393,0.2373217115689381,0.1080642251488363,0.7324067117455547,0.6830716056803666,0.3970736629667002,0.1782170775706554,0.1100934579439252,0.1335236631162841
0.1629818594104308,0.1252206531332744,0.0537383177570091,0.8583126550868487,0.2309825673534072,0.1021107703409705,0.7283996994740797,0.6796904350439552,0.3951816347124116,0.1753607937462417,0.1062616822429906,0.1293510486439002
0.1598639455782312,0.1229037952338922,0.0551401869158878,0.8610421836228288,0.2258320126782884,0.1004871008479163,0.7235161532682193,0.6757833045307686,0.3917129162462159,0.1715273601924233,0.1011214953271028,0.1232019325793346
0.1651077097505669,0.1270962047661077,0.0551401869158878,0.8563275434243177,0.2333597464342313,0.1039148475554753,0.7243926872026045,0.6766849500338117,0.3920913218970736,0.1728803367408298,0.1014018691588785,0.1244097946634456
0.1710600907029478,0.1325022065313327,0.058411214953271,0.8507444168734493,0.2404912836767035,0.1089662637560886,0.7291510142749812,0.6809677661732662,0.3960645812310797,0.1774654239326518,0.1072897196261682,0.1306687163720215
0.1703514739229024,0.1310679611650485,0.0546728971962616,0.8518610421836229,0.2408874801901743,0.1069817788201334,0.7324067117455547,0.6834472913066345,0.3977043390514631,0.1791942273000601,0.1104672897196261,0.1330844405402437
0.163265306122449,0.1248896734333627,0.0523364485981308,0.8584367245657568,0.2317749603803486,0.1015695471766191,0.7283996994740797,0.6798407092944624,0.3950554994954591,0.1754359591100421,0.1060747663551401,0.1283627978478093
0.1597222222222222,0.1225728155339806,0.0537383177570091,0.8612903225806452,0.2266244057052298,0.0999458776835648,0.7225144002003506,0.6759335787812758,0.3913975782038345,0.1712266987372218,0.1005607476635514,0.1227627100032941
0.1646825396825396,0.1256619593998235,0.0504672897196259,0.8573200992555832,0.2345483359746434,0.10193036261952,0.722389181066867,0.6763844015327972,0.3915867810292633,0.1720535177390258,0.101214953271028,0.1234215438673547
0.1710600907029478,0.131729920564872,0.0551401869158878,0.8511166253101737,0.2416798732171157,0.1077034097059354,0.7300275482093664,0.6808926290480126,0.3957492431886982,0.1772399278412507,0.1074766355140186,0.1306687163720215
0.1706349206349206,0.1311782877316858,0.0546728971962616,0.8516129032258065,0.2412836767036449,0.1071621865415839,0.7324067117455547,0.6832218799308738,0.3977043390514631,0.1793445580276608,0.1095327102803738,0.1333040518282639
0.163265306122449,0.1247793468667255,0.0514018691588784,0.8584367245657568,0.2321711568938192,0.1013891394551686,0.7287753568745304,0.6796152979187017,0.3948032290615539,0.1758117859290439,0.1060747663551401,0.1293510486439002
0.1602891156462584,0.1219108561341571,0.0490654205607476,0.8612903225806452,0.2293977812995245,0.0985026159119609,0.7231404958677685,0.6757081674055151,0.3913975782038345,0.1715273601924233,0.1018691588785046,0.123750960799385
0.1641156462585034,0.1268755516328332,0.0574766355140186,0.8569478908188586,0.2309825673534072,0.1042756629983762,0.724267468069121,0.6769103614095724,0.3921543895055499,0.172504509921828,0.1026168224299065,0.1242999890194356
0.1709183673469388,0.1320609002647838,0.0570093457943923,0.8509925558312657,0.2408874801901743,0.1082446328702868,0.7297771099423992,0.68209482305207,0.3958753784056508,0.1767889356584485,0.1073831775700934,0.1296804655759306
0.1697845804988662,0.1318402471315092,0.0598130841121493,0.8516129032258065,0.2377179080824089,0.1086054483131878,0.7332832456799399,0.6839732511834097,0.3975782038345106,0.1792693926638605,0.1099065420560747,0.1330844405402437
0.163407029478458,0.1256619593998235,0.0546728971962616,0.8579404466501241,0.231378763866878,0.102651993505322,0.7299023290758828,0.6807423547975054,0.3953077699293642,0.1764131088394468,0.1069158878504672,0.1292412429998902
0.159438775510204,0.1215798764342453,0.0504672897196259,0.8619106699751862,0.2274167987321711,0.0985026159119609,0.7241422489356374,0.6760087159065293,0.3917129162462159,0.1713018641010222,0.1014018691588785,0.1224332930712638
0.1636904761904762,0.1259929390997352,0.0551401869158878,0.8575682382133996,0.231378763866878,0.103012808948223,0.7233909341347358,0.6764595386580509,0.3921543895055499,0.1722038484666266,0.1017757009345794,0.1227627100032941
0.1704931972789115,0.1323918799646954,0.0593457943925235,0.8509925558312657,0.2393026941362915,0.1089662637560886,0.7299023290758828,0.6814937260500412,0.3960645812310797,0.1771647624774503,0.1085981308411214,0.1308883276600417
0.1692176870748299,0.1315092674315975,0.0602803738317755,0.8519851116625311,0.2369255150554675,0.1084250405917373,0.7330328074129727,0.6835975655571417,0.3981458123107971,0.1791942273000601,0.1111214953271027,0.1340726913363346
0.163407029478458,0.1257722859664606,0.0551401869158878,0.857816377171216,0.2309825673534072,0.1028324012267725,0.728274480340596,0.6802915320459838,0.3950554994954591,0.1755862898376428,0.1059813084112149,0.1286922147798396
0.159438775510204,0.1215798764342453,0.0504672897196259,0.8619106699751862,0.2274167987321711,0.0985026159119609,0.7233909341347358,0.6765346757833044,0.3915867810292633,0.1714521948286229,0.1008411214953271,0.122652904359284
0.1648242630385487,0.1266548984995587,0.0542056074766354,0.8566997518610422,0.2333597464342313,0.1033736243911238,0.724267468069121,0.6772109099105867,0.3923435923309787,0.1723541791942273,0.102429906542056,0.1244097946634456
0.1801303854875283,0.1387908208296557,0.055607476635514,0.8431761786600497,0.2539619651347068,0.1136568645138011,0.7356624092161282,0.6865279134420317,0.400542381432896,0.1822760072158749,0.1149532710280373,0.1373668606566377
0.1950113378684807,0.1542365401588702,0.0719626168224297,0.8280397022332507,0.2678288431061806,0.1293523362799927,0.749060856498873,0.6970471109775339,0.4112008072653885,0.1950541190619362,0.1304672897196261,0.1521906225980015
0.2019557823129251,0.1665931156222418,0.1009345794392523,0.8179900744416874,0.2654516640253566,0.1450478080461844,0.7560731279739544,0.7036591779998497,0.4173183652875882,0.2029464822609741,0.1404672897196261,0.160316240254749
0.213860544217687,0.1811562224183583,0.1233644859813085,0.8045905707196029,0.2725832012678288,0.1612845029767273,0.7625845229151014,0.7088436396423472,0.4236881937436932,0.2102375225496091,0.149626168224299,0.1676732184034259
0.2341269841269841,0.2035525154457193,0.1509345794392524,0.7831265508684864,0.2892234548335974,0.18491791448674,0.7712246431254695,0.7190622886768352,0.4352926337033299,0.2227901383042694,0.1655140186915887,0.1818381464807291
0.2552437641723356,0.2255075022065313,0.1747663551401869,0.7615384615384616,0.3086370839936608,0.2074688796680497,0.788129226145755,0.7329626568487488,0.447401614530777,0.237297053517739,0.1834579439252336,0.201163939826507
0.2653061224489796,0.2379744042365401,0.1943925233644858,0.7501240694789083,0.3141838351822504,0.221540681941187,0.800275482093664,0.7446089112630551,0.4562941473259334,0.2486470234515935,0.19803738317757,0.2142308114637092
0.2696995464852607,0.2436010591350397,0.2037383177570091,0.7450372208436725,0.3165610142630745,0.2278549521919538,0.803656398697721,0.7464122022691411,0.4598259334006054,0.2517288033674082,0.2022429906542056,0.2177445920720324
0.2749433106575963,0.2483451015004412,0.2065420560747661,0.7400744416873449,0.3225039619651347,0.2323651452282157,0.8045329326321062,0.7467878878954091,0.4603304742684156,0.2532321106434155,0.2030841121495327,0.218403425936093
0.2820294784580499,0.257171226831421,0.2205607476635514,0.7320099255583127,0.3268621236133122,0.2421071621865416,0.8069120961682945,0.7507701555338493,0.4636730575176588,0.2571407095610342,0.2086915887850467,0.2241133194246184
0.2888321995464852,0.263018534863195,0.2228971962616822,0.725682382133995,0.3351822503961965,0.2475193938300559,0.8124217380415727,0.7555037944248252,0.4673940464177598,0.261049308478653,0.2130841121495326,0.2294937959811133
0.2847222222222222,0.2569505736981465,0.2107476635514018,0.730893300248139,0.3343898573692551,0.2401226772505862,0.8130478337089907,0.7533248177924712,0.4659434914228052,0.2597714972940469,0.2109345794392523,0.2268584605248709
0.270266439909297,0.2450353045013239,0.2079439252336448,0.744044665012407,0.3153724247226624,0.229839437127909,0.8020285499624342,0.744984596889323,0.4596997981836528,0.2523301262778111,0.2023364485981308,0.2205995388162951
0.2654478458049887,0.239739629302736,0.2014018691588784,0.7490074441687345,0.3114104595879556,0.2242467977629443,0.7947658402203855,0.7405515064993613,0.4556004036326942,0.2475947083583884,0.1963551401869158,0.2131327550236082
0.2637471655328798,0.2387466902030009,0.2032710280373829,0.7503722084367247,0.3082408874801902,0.2237055745985927,0.7942649636864513,0.7404012322488541,0.4541498486377396,0.2453397474443776,0.1933644859813084,0.2090699461952344
0.2613378684807256,0.233892321270962,0.1901869158878505,0.7540942928039703,0.3106180665610142,0.2172108966263756,0.7936388680190333,0.7382222556165,0.451374873864783,0.2429344558027661,0.1899065420560747,0.206544416383002
0.2474489795918367,0.2180052956751985,0.1686915887850467,0.7692307692307693,0.3003169572107765,0.2000721630885801,0.787503130478337,0.7313847772184235,0.4452573158425832,0.2359440769693325,0.1816822429906542,0.1997364664543757
0.2260487528344671,0.1951676963812886,0.1429906542056074,0.7913151364764268,0.2812995245641838,0.1764387515785675,0.7728524918607562,0.7190622886768352,0.4330221997981836,0.2211365003006614,0.164018691588785,0.1820577577687493
0.2066326530612244,0.1738746690203001,0.1163551401869159,0.8119106699751861,0.2654516640253566,0.1540681941187082,0.7570748810418231,0.7044856863776392,0.4193995963673057,0.2045249549007817,0.1426168224299065,0.1627319644229713
0.1965702947845805,0.1601941747572816,0.0920560747663551,0.8239454094292805,0.2618858954041204,0.1380119069096157,0.7456799398948158,0.6955443684724623,0.4103178607467204,0.1938514732411304,0.1294392523364485,0.1498847040737893
0.1890589569160997,0.1481685789938217,0.0654205607476637,0.8339950372208438,0.2622820919175911,0.1232184737506764,0.7411720510894064,0.6908107295814861,0.4055247225025226,0.1876127480457005,0.1218691588785046,0.1435159767212034
0.1737528344671201,0.1340467784642542,0.0560747663551403,0.84863523573201,0.2452456418383518,0.1096878946418906,0.7346606561482594,0.6857765421894957,0.4000378405650857,0.1809981960312688,0.1139252336448598,0.1370374437246074
0.1621315192743764,0.1247793468667255,0.0551401869158878,0.8589330024813897,0.2293977812995245,0.10193036261952,0.7276483846731779,0.6799158464197159,0.3948662966700302,0.1753607937462417,0.1063551401869158,0.1297902712199407
0.1595804988662131,0.1222418358340688,0.0528037383177571,0.8615384615384617,0.2266244057052298,0.0994046545192134,0.7218883045329325,0.6757081674055151,0.3913975782038345,0.1710012026458208,0.1009345794392523,0.1229823212913143
0.1638321995464852,0.1257722859664606,0.0537383177570091,0.8576923076923078,0.2321711568938192,0.102651993505322,0.7228900576008014,0.6771357727853332,0.3922174571140262,0.1722038484666266,0.1028971962616822,0.1248490172394861
0.1703514739229024,0.1313989408649603,0.0560747663551403,0.8516129032258065,0.2404912836767035,0.1077034097059354,0.73015276734285,0.6814185889247877,0.3960645812310797,0.1771647624774503,0.1078504672897196,0.1308883276600417
0.1696428571428571,0.1310679611650485,0.0565420560747661,0.8521091811414393,0.2393026941362915,0.1073425942630344,0.7324067117455547,0.6836727026823952,0.3977043390514631,0.1792693926638605,0.1100934579439252,0.1344021082683649
0.163265306122449,0.1249999999999999,0.0523364485981308,0.8583126550868487,0.2317749603803486,0.1015695471766191,0.7290257951414976,0.6801412577954767,0.3950554994954591,0.1759621166566446,0.1066355140186915,0.1293510486439002
0.1588718820861678,0.1219108561341571,0.0537383177570091,0.8619106699751862,0.2254358161648177,0.0994046545192134,0.7233909341347358,0.6760087159065293,0.3918390514631684,0.1719783523752255,0.1016822429906541,0.1230921269353244
0.1629818594104308,0.1270962047661077,0.0616822429906542,0.857196029776675,0.2274167987321711,0.1051777016056287,0.7226396193338342,0.6769103614095724,0.3922174571140262,0.1724293445580276,0.1022429906542056,0.1244097946634456
0.1700680272108843,0.1333848190644307,0.0654205607476637,0.8506203473945411,0.2357369255150554,0.1111311564134945,0.7291510142749812,0.6815688631752949,0.3954339051463168,0.1768641010222489,0.1082242990654205,0.1305589107280114
0.1697845804988662,0.1319505736981465,0.0602803738317755,0.8516129032258065,0.2377179080824089,0.1087858560346383,0.7327823691460055,0.6835224284318882,0.3975782038345106,0.1782170775706554,0.1107476635514018,0.1335236631162841
0.1636904761904762,0.1255516328331862,0.0532710280373833,0.857816377171216,0.2321711568938192,0.102291178062421,0.7290257951414976,0.6807423547975054,0.3951185671039354,0.1749098015634395,0.106822429906542,0.1285824091358296
0.1602891156462584,0.122352162400706,0.0514018691588784,0.861166253101737,0.2282091917591124,0.0992242467977629,0.7232657150012521,0.6765346757833044,0.3915867810292633,0.17085087191822,0.1021495327102803,0.1233117382233446
0.1639739229024943,0.1258826125330979,0.0532710280373833,0.8574441687344915,0.23256735340729,0.102651993505322,0.7232657150012521,0.6765346757833044,0.391965186680121,0.1715273601924233,0.1022429906542056,0.1240803777314153
0.1700680272108843,0.1320609002647838,0.0593457943925235,0.8513647642679901,0.2385103011093502,0.1087858560346383,0.7297771099423992,0.6815688631752949,0.3965060544904136,0.1767137702946482,0.108411214953271,0.1313275502360821
0.169501133786848,0.1310679611650485,0.0574766355140186,0.8522332506203475,0.2385103011093502,0.1075230019844849,0.7331580265464563,0.683372154181381,0.3982719475277497,0.1788935658448587,0.1103738317757009,0.1337432744043043
0.1631235827664399,0.1249999999999999,0.0528037383177571,0.8584367245657568,0.231378763866878,0.1017499548980696,0.7294014525419483,0.6801412577954767,0.3954339051463168,0.1759621166566446,0.1067289719626168,0.1303392994399912
0.159438775510204,0.1225728155339806,0.0542056074766354,0.8614143920595534,0.2258320126782884,0.1001262854050153,0.7241422489356374,0.6757081674055151,0.3917759838546922,0.1713018641010222,0.1017757009345794,0.1252882398155265
0.1635487528344671,0.1272065313327448,0.0607476635514018,0.8569478908188586,0.2286053882725832,0.1051777016056287,0.7238918106686701,0.6763092644075437,0.3921543895055499,0.1719783523752255,0.102429906542056,0.1251784341715164
0.1666666666666666,0.1278684907325684,0.0532710280373833,0.855210918114144,0.2365293185419968,0.1040952552769259,0.7299023290758828,0.6817191374258021,0.3942356205852674,0.1761876127480456,0.1057009345794392,0.1274843526957285
0.1495181405895691,0.1086716681376875,0.0285046728971963,0.8734491315136478,0.2230586370839936,0.0837091827530218,0.7300275482093664,0.6778871440378691,0.3850908173562058,0.1705502104630186,0.0908411214953271,0.1111233117382233
0.0850340136054421,0.0606796116504854,0.0378504672897197,0.9287841191066998,0.1287638668779714,0.0461843766913224,0.71274730778863,0.6531670298294386,0.3594853683148334,0.1361244738424534,0.0523364485981308,0.0641264961018996
0.0196995464852607,0.0126875551632832,0.0500000000000001,0.98424317617866,0.0324881141045958,0.0093812015154248,0.7077385424492862,0.6351341197685776,0.3436553985872855,0.1027510523150932,0.0122429906542056,0.0152629845174041
0.0089285714285714,0.0055163283318622,0.0551401869158878,0.9930521091811416,0.0150554675118858,0.0045101930362619,0.7538191835712496,0.6633105417386731,0.3854061553985872,0.1242483463619963,0.0063551401869158,0.005380476556495
0.0987811791383219,0.0819726390114739,0.0827102803738318,0.9107940446650123,0.1291600633914421,0.0723434963016417,0.8363385925369397,0.7420542490044331,0.4986125126135216,0.2273752254960914,0.0797196261682243,0.0820248160755462
0.2475907029478458,0.2249558693733451,0.1971962616822427,0.7652605459057072,0.288431061806656,0.2112574418185098,0.9070874029551717,0.8322187993087384,0.650100908173562,0.4045399879735418,0.2381308411214953,0.2282859338970022
0.4465702947845805,0.4189099735216239,0.3630841121495326,0.5691066997518611,0.4960380348652932,0.4019484033916651,0.9566741798146756,0.9162221053422496,0.7885973763874874,0.5976398075766687,0.4433644859813083,0.4223125068628526
0.6543367346938775,0.6391218005295676,0.6107476635514018,0.3542183622828784,0.6814580031695721,0.629803355583619,0.9883546205860256,0.9787361935532346,0.9232467204843592,0.8081779915814792,0.6719626168224299,0.6395080707148347
0.8677721088435374,0.8610988526037071,0.8476635514018688,0.1359801488833746,0.8795562599049128,0.8571170846112212,0.965815176558978,0.9794875648057704,0.9959006054490412,0.970234515935057,0.8989719626168224,0.8581311079389481
0.9946145124716552,0.9939320388349516,0.9911214953271024,0.0058312655086848,0.996038034865293,0.9933249143063322,0.8317054845980465,0.869486813434518,0.916624621594349,0.9711365003006616,0.9981308411214952,0.9916547710552324
0.9546485260770976,0.9524492497793468,0.9476635514018692,0.0466501240694788,0.958795562599049,0.9511095074869204,0.6019283746556473,0.6626343076113907,0.6946266397578202,0.8165965123271197,0.9113084112149532,0.9549796859558582
0.7956349206349207,0.7882833186231245,0.7766355140186916,0.208560794044665,0.8090332805071314,0.7838715497023274,0.3397195091409967,0.391163874070178,0.4234989909182644,0.5932802164762478,0.7254205607476635,0.7930163610409575
0.596938775510204,0.580648720211827,0.5523364485981307,0.4122828784119107,0.6259904912836767,0.5708100306693127,0.1089406461307287,0.1282590728078743,0.160443995963673,0.3556073361395069,0.4927102803738318,0.5827385527616119
0.3964002267573696,0.3650706090026479,0.3004672897196263,0.6213399503722085,0.4524564183835182,0.3458416020205665,0.0003756574004507,0.0027800736343827,0.0121720484359233,0.1536380036079374,0.2615887850467289,0.3642253211815087
0.2351190476190476,0.1916372462488967,0.0976635514018691,0.7893300248138958,0.313391442155309,0.1648926574057369,0.0906586526421237,0.0589826433240664,0.0282542885973764,0.0289386650631389,0.1148598130841121,0.1909520149335676
0.1478174603174603,0.1041482789055604,0.0149532710280373,0.8767990074441688,0.226228209191759,0.077394912502255,0.2779864763335837,0.2186490344879405,0.1256937436932391,0.009170174383644,0.0490654205607476,0.1068408916218293
0.0909863945578231,0.0591350397175639,0.0116822429906541,0.926923076923077,0.1481774960380348,0.0400505141620061,0.4534184823441021,0.3832744759185513,0.2313950554994954,0.0387853277209861,0.0276635514018691,0.0614911606456571
0.0744047619047619,0.0524051191526919,0.0378504672897197,0.938089330024814,0.1137083993660855,0.0395092909976546,0.5833959429000751,0.5160417762416409,0.3063193743693239,0.0892212868310282,0.0303738317757009,0.0534753486329197
0.1160714285714285,0.0804280670785524,0.0186915887850467,0.903970223325062,0.18026941362916,0.0588129171928558,0.6615326821938392,0.6045533097903675,0.3527371342078708,0.1310883944678292,0.0558878504672897,0.078511035467223
0.1609977324263038,0.1170564872021183,0.0261682242990652,0.8637717121588089,0.2400950871632329,0.0900234530037886,0.7148760330578512,0.6597790968517544,0.3833879919273461,0.1626578472639807,0.0894392523364485,0.1159547600746678
0.1703514739229024,0.1287511032656663,0.044859813084112,0.8531017369727047,0.2452456418383518,0.1031932166696733,0.731404958677686,0.680817491922759,0.3956861755802219,0.1771647624774503,0.1075700934579439,0.1317667728121225
0.1629818594104308,0.1253309796999117,0.0551401869158878,0.8581885856079404,0.2305863708399366,0.1024715857838715,0.7290257951414976,0.6801412577954767,0.3949293642785065,0.1757366205652435,0.1063551401869158,0.1292412429998902
0.1604308390022675,0.1227934686672551,0.0523364485981308,0.8607940446650124,0.2282091917591124,0.0997654699621143,0.724517906336088,0.6763092644075437,0.3914606458123107,0.171677690920024,0.1011214953271028,0.1240803777314153
0.1648242630385487,0.1275375110326566,0.0579439252336448,0.8562034739454095,0.2317749603803486,0.1048168861627277,0.7233909341347358,0.6763092644075437,0.391523713420787,0.1715273601924233,0.1018691588785046,0.1242999890194356
0.1707766439909297,0.1325022065313327,0.0593457943925235,0.8508684863523573,0.2396988906497623,0.1091466714775391,0.7285249186075632,0.6809677661732662,0.3954339051463168,0.1761124473842453,0.1072897196261682,0.1303392994399912
0.1696428571428571,0.1315092674315975,0.0588785046728973,0.8518610421836229,0.2381141045958795,0.1082446328702868,0.7331580265464563,0.6836727026823952,0.3973259334006054,0.1790438965724594,0.1100934579439252,0.1337432744043043
0.1638321995464852,0.1258826125330979,0.0542056074766354,0.8575682382133996,0.2317749603803486,0.1028324012267725,0.7291510142749812,0.6799909835449696,0.3945509586276488,0.1758117859290439,0.1057943925233644,0.1290216317118699
0.1598639455782312,0.1226831421006178,0.0532710280373833,0.861166253101737,0.2270206022187004,0.0999458776835648,0.7228900576008014,0.676083853031783,0.3914606458123107,0.1715273601924233,0.1013084112149532,0.1236411551553749
0.1639739229024943,0.1261032656663724,0.0546728971962616,0.8574441687344915,0.2321711568938192,0.103012808948223,0.724267468069121,0.6770606356600796,0.3917129162462159,0.1726548406494287,0.1027102803738317,0.1252882398155265
0.1703514739229024,0.1319505736981465,0.0579439252336448,0.8513647642679901,0.2393026941362915,0.1084250405917373,0.7296518908089156,0.6817191374258021,0.3956861755802219,0.1774654239326518,0.1082242990654205,0.1314373558800922
0.1699263038548752,0.1310679611650485,0.0560747663551403,0.8519851116625311,0.2396988906497623,0.1073425942630344,0.7322814926120711,0.6840483883086633,0.3978304742684157,0.1794197233914612,0.1104672897196261,0.1340726913363346
0.1628401360544217,0.1252206531332744,0.0546728971962616,0.8583126550868487,0.2305863708399366,0.102291178062421,0.7300275482093664,0.680817491922759,0.3947401614530776,0.1757366205652435,0.1064485981308411,0.1299000768639508
0.1590136054421768,0.1211385701676964,0.0504672897196259,0.8622828784119106,0.2270206022187004,0.0981418004690601,0.7240170298021538,0.6766849500338117,0.3913345105953582,0.1719783523752255,0.1010280373831775,0.123750960799385
0.1642573696145124,0.1255516328331862,0.0514018691588784,0.8575682382133996,0.233755942947702,0.10193036261952,0.724267468069121,0.6769103614095724,0.3915867810292633,0.1728803367408298,0.1015887850467289,0.1246294059514659
0.1710600907029478,0.1322815533980582,0.0579439252336448,0.8507444168734493,0.2404912836767035,0.1086054483131878,0.7309040821437515,0.6814937260500412,0.3958753784056508,0.1772399278412507,0.1073831775700934,0.1314373558800922
0.1696428571428571,0.131729920564872,0.0593457943925235,0.8517369727047146,0.2381141045958795,0.1084250405917373,0.733533683946907,0.6839732511834097,0.3976412714429868,0.1794197233914612,0.1106542056074766,0.1348413308444054
0.1638321995464852,0.1256619593998235,0.0532710280373833,0.8576923076923078,0.23256735340729,0.102291178062421,0.7286501377410468,0.6802915320459838,0.3948032290615539,0.1761124473842453,0.1062616822429906,0.1296804655759306
0.1598639455782312,0.1230141218005295,0.0551401869158878,0.8609181141439206,0.2258320126782884,0.1006675085693668,0.7222639619333834,0.6754827560297544,0.391082240161453,0.1718280216476247,0.1011214953271028,0.1235313495113649
0.1639739229024943,0.1267652250661959,0.0574766355140186,0.8570719602977668,0.2309825673534072,0.1040952552769259,0.7231404958677685,0.6766849500338117,0.3913345105953582,0.1723541791942273,0.1011214953271028,0.1245196003074558
0.1703514739229024,0.1319505736981465,0.058411214953271,0.8513647642679901,0.2393026941362915,0.1084250405917373,0.73015276734285,0.6815688631752949,0.3956231079717456,0.1773902585688515,0.1069158878504672,0.1318765784561326
0.1707766439909297,0.132171226831421,0.0579439252336448,0.8509925558312657,0.2400950871632329,0.1086054483131878,0.733533683946907,0.683372154181381,0.398335015136226,0.1796452194828622,0.1100934579439252,0.1348413308444054
0.1645408163265306,0.1256619593998235,0.0509345794392522,0.8574441687344915,0.2341521394611727,0.10193036261952,0.7287753568745304,0.6803666691712374,0.3956861755802219,0.1759621166566446,0.1065420560747663,0.1297902712199407
0.1605725623582766,0.1231244483671668,0.0532710280373833,0.860545905707196,0.2278129952456418,0.1003066931264658,0.7226396193338342,0.6759335787812758,0.3913345105953582,0.1713018641010222,0.1010280373831775,0.1228725156473042
0.1641156462585034,0.1264342453662842,0.0551401869158878,0.8570719602977668,0.2317749603803486,0.1033736243911238,0.7233909341347358,0.6761589901570365,0.3916498486377396,0.1725796752856283,0.1015887850467289,0.1242999890194356
0.171343537414966,0.1316195939982347,0.0532710280373833,0.8509925558312657,0.2428684627575277,0.1073425942630344,0.728900576008014,0.6814185889247877,0.3958123107971745,0.1772399278412507,0.1082242990654205,0.1315471615241023
0.171343537414966,0.131729920564872,0.0542056074766354,0.8509925558312657,0.242472266244057,0.1075230019844849,0.7330328074129727,0.684273799684424,0.3975151362260343,0.1785929043896572,0.1109345794392523,0.1341824969803448
0.1631235827664399,0.1257722859664606,0.0560747663551403,0.8579404466501241,0.2301901743264658,0.103012808948223,0.7290257951414976,0.6802915320459838,0.3946770938446014,0.1750601322910402,0.1059813084112149,0.1285824091358296
0.159438775510204,0.1221315092674315,0.0528037383177571,0.8616625310173698,0.2266244057052298,0.0994046545192134,0.7231404958677685,0.6758584416560222,0.3912714429868819,0.1713770294648226,0.1010280373831775,0.122652904359284
0.1629818594104308,0.126323918799647,0.0588785046728973,0.8576923076923078,0.2290015847860538,0.1039148475554753,0.724267468069121,0.6771357727853332,0.3918390514631684,0.172504509921828,0.1019626168224299,0.1246294059514659
0.1731859410430839,0.1351500441306266,0.0626168224299063,0.8482630272952855,0.2416798732171157,0.1120331950207468,0.7306536438767843,0.6844992110601847,0.3994071644803229,0.1809230306674684,0.11,0.1335236631162841
0.1863662131519274,0.144748455428067,0.0598130841121493,0.8370967741935483,0.2610935023771791,0.119249503878766,0.7401702980215377,0.6956946427229693,0.4153002018163471,0.197309079975947,0.1228971962616822,0.1450532557373449
0.1968537414965986,0.1535745807590467,0.0626168224299063,0.827543424317618,0.2745641838351822,0.1270070359011365,0.7461808164287503,0.7037343151251033,0.4314455095862764,0.2121918220084185,0.134018691588785,0.1528494564620621
0.2104591836734693,0.167586054721977,0.0771028037383178,0.8136476426799008,0.2876386687797147,0.1412592458957243,0.7494365138993238,0.7110226162747013,0.4458879919273461,0.2251954299458809,0.1430841121495327,0.1585593499505874
0.2301587301587301,0.1870035304501323,0.0943925233644859,0.7941687344913152,0.3074484944532488,0.160382464369475,0.7604557976458802,0.7247727101961078,0.4658804238143289,0.2454900781719783,0.1594392523364486,0.1725046667398704
0.2563775510204081,0.2124889673433362,0.1158878504672896,0.7683622828784119,0.3351822503961965,0.1854591376510915,0.7771099423991985,0.7438575400105192,0.4900983854692229,0.2708959711365002,0.180841121495327,0.19358735038981
0.2714002267573696,0.22716240070609,0.1285046728971962,0.7534739454094294,0.3510301109350238,0.1998917553671296,0.7910092662158777,0.7584341423097152,0.5119197780020182,0.2925435959110042,0.1971028037383177,0.2113758647194465
0.2808956916099773,0.2366504854368932,0.1378504672897196,0.744044665012407,0.3601426307448494,0.209453364604005,0.7970197846230904,0.7684273799684423,0.5288218970736629,0.3086289837642814,0.2087850467289719,0.220489733172285
0.294501133786848,0.2518755516328332,0.1570093457943926,0.7295285359801489,0.3708399366085578,0.225690059534548,0.8017781116954671,0.7772935607483656,0.5445257315842582,0.3232862297053518,0.2197196261682243,0.2270780718128911
0.3163265306122449,0.2726169461606355,0.172897196261682,0.7083126550868486,0.3946117274167987,0.2455349088941007,0.8115452041071876,0.7911187917950259,0.5636982845610493,0.3424533974744438,0.235233644859813,0.2406939716701438
0.338718820861678,0.2933583406884378,0.1873831775700935,0.686848635235732,0.4199683042789223,0.2653797582536533,0.8275732531930878,0.8072732737245473,0.5865287588294651,0.3659049909801563,0.254392523364486,0.2593609311518612
0.3538832199546485,0.308252427184466,0.200467289719626,0.6718362282878412,0.4358161648177495,0.2799927836911419,0.8387177560731279,0.820647682019686,0.6057643794147326,0.3862748045700541,0.2708411214953271,0.2749533326012957
0.3636621315192744,0.3163062665489849,0.2018691588785046,0.6630272952853599,0.448890649762282,0.2870286848277105,0.8434760831455046,0.827935983169284,0.6190085771947528,0.3983012627781118,0.2798130841121495,0.2805534204458109
0.3725907029478458,0.3254633715798764,0.211214953271028,0.653970223325062,0.4572107765451664,0.296229478621685,0.8448534936138241,0.8337966789390637,0.629856205852674,0.4090499098015634,0.2865420560747663,0.2847260349181947
0.389172335600907,0.3406884377758164,0.2210280373831777,0.6382133995037221,0.476228209191759,0.3104816886162728,0.8514901076884548,0.8435645052220302,0.6442986881937436,0.4223541791942273,0.2975700934579439,0.2938399033710333
0.4034863945578231,0.3559135039717564,0.2383177570093457,0.6233250620347395,0.4889064976228208,0.3263575681039148,0.8645128975707488,0.8558869937636185,0.6605070635721493,0.4385898977751052,0.3126168224299065,0.3099813330405183
0.4143990929705215,0.3654015887025596,0.2425233644859814,0.6132754342431762,0.502377179080824,0.3348367310120873,0.8727773603806661,0.8640018032910061,0.671228557013118,0.4523451593505712,0.3223364485981307,0.3206324805094981
0.4145408163265306,0.3655119152691968,0.2420560747663552,0.613151364764268,0.5027733755942947,0.3348367310120873,0.8736538943150512,0.8658050942970921,0.6755802219979817,0.4567047504509922,0.325607476635514,0.3218403425936093
0.4131235827664399,0.3663945278022948,0.2514018691588786,0.613151364764268,0.4968304278922344,0.337362439112394,0.8697721011770598,0.8649785859193027,0.6789228052472249,0.458132892363199,0.3246728971962616,0.3210717030855385
0.419501133786848,0.3731244483671668,0.2584112149532708,0.606575682382134,0.5027733755942947,0.3443983402489626,0.8697721011770598,0.8668570140506424,0.682454591321897,0.4604630186410102,0.3266355140186915,0.32271878774569
0.4258786848072562,0.3791924095322154,0.2626168224299064,0.6004962779156328,0.509904912836767,0.3501713873353779,0.875281743050338,0.8726425726951687,0.6868693239152371,0.4657245941070355,0.3325233644859812,0.3295267376743164
0.4246031746031746,0.3777581641659311,0.260747663551402,0.6018610421836229,0.508716323296355,0.3485477178423236,0.8785374405209115,0.874220452325494,0.6880045408678103,0.4682050511124474,0.3351401869158878,0.3331503239266498
0.4159580498866213,0.3693733451015005,0.2542056074766355,0.6102977667493796,0.4996038034865293,0.340429370377052,0.8757826195842725,0.8697122248102787,0.6814455095862765,0.4614401683704149,0.3287850467289719,0.3264521796420336
0.4111394557823129,0.3625330979699911,0.2411214953271027,0.6162531017369728,0.4984152139461172,0.3323110229117806,0.8680190333082894,0.8613720039071304,0.6714177598385468,0.4512176788935658,0.3193457943925233,0.3149225870209728
0.4061791383219955,0.3590026478375993,0.2429906542056072,0.620347394540943,0.4908874801901743,0.3297853148114739,0.8627598297019784,0.8564129536403936,0.6638496468213925,0.4436259771497294,0.3126168224299065,0.309761721752498
0.4026360544217687,0.3545895851721095,0.2355140186915887,0.6244416873449132,0.4889064976228208,0.3247338986108604,0.8640120210368144,0.8549853482605755,0.6587411705348132,0.4373120865904991,0.3119626168224299,0.3087734709564071
0.3929988662131519,0.3455428067078553,0.2285046728971961,0.6337468982630273,0.4786053882725831,0.3158939202597871,0.8602554470323065,0.8496506123675708,0.648335015136226,0.4284425736620564,0.3048598130841121,0.3024047436038212
0.3735827664399093,0.3274492497793469,0.2163551401869158,0.6523573200992556,0.456418383518225,0.2987551867219916,0.8499874780866516,0.8371778495754753,0.6320005045408678,0.4116055321707757,0.2899065420560747,0.2898869001866695
0.3564342403628118,0.3114518976169462,0.2046728971962616,0.6688585607940447,0.4374009508716323,0.2836009381201514,0.8369646882043577,0.8218498760237433,0.6130802219979817,0.3911605532170775,0.2723364485981308,0.273196442297134
0.3455215419501134,0.3004192409532215,0.194859813084112,0.6799007444168734,0.4263074484944533,0.2725960671116724,0.8280741297270223,0.8116312269892554,0.5973133198789101,0.3766536380036079,0.2605607476635513,0.2627649061161743
0.3363095238095238,0.2903795233892321,0.1822429906542054,0.6895781637717122,0.4187797147385103,0.2619520115460942,0.8253193087903831,0.8060710797204897,0.5843213925327951,0.3641010222489477,0.2526168224299065,0.2576040408476995
0.3190192743764172,0.2750441306266549,0.1738317757009345,0.7058312655086849,0.3981774960380349,0.2476998015515064,0.8193087903831705,0.7966789390637914,0.5670408678102926,0.3474143114852676,0.2420560747663551,0.248490172394861
0.2964852607709751,0.2524271844660194,0.152803738317757,0.7284119106699752,0.375594294770206,0.2253292440916471,0.8061607813673929,0.7796228116312269,0.5460393541876892,0.3254660252555622,0.2223364485981308,0.2317997145053255
0.2745181405895691,0.2314651368049426,0.1364485981308409,0.7497518610421836,0.351822503961965,0.204943171567743,0.7908840470823941,0.7620407243218874,0.5226412714429869,0.3013379434756464,0.2014018691588785,0.211924892939497
0.2626133786848073,0.220432480141218,0.1289719626168225,0.761166253101737,0.3383518225039619,0.1944795237236153,0.7793638868019033,0.7500187842813134,0.5028380423814329,0.2823211064341551,0.1865420560747663,0.1984187987262545
0.2539682539682539,0.2089585172109444,0.108878504672897,0.7713399503722085,0.3347860538827258,0.1813097600577304,0.7748559979964939,0.7419791118791794,0.4870711402623612,0.2681148526758869,0.1782242990654205,0.1918304600856483
0.2335600907029478,0.1890997352162401,0.0920560747663551,0.7915632754342432,0.313391442155309,0.1616453184196283,0.7684698221888304,0.7294312119618304,0.4685923309788092,0.2495490078171978,0.1651401869158878,0.1800812561765674
0.2104591836734693,0.1679170344218888,0.0785046728971961,0.8135235732009927,0.2868462757527734,0.1418004690600758,0.7541948409717004,0.7127507701555338,0.4466448032290614,0.2269242333132892,0.1465420560747663,0.1626221587789612
0.1897675736961451,0.1484995586937334,0.0644859813084112,0.833498759305211,0.2638668779714738,0.1232184737506764,0.739418983220636,0.6968216996017732,0.4250756811301715,0.204374624173181,0.1258878504672897,0.1439551992972438
0.1781462585034013,0.138018534863195,0.058411214953271,0.8444168734491315,0.2503961965134706,0.1134764567923507,0.7309040821437515,0.6873544218198211,0.4074798183652875,0.187913409500902,0.1125233644859813,0.1333040518282639
0.1724773242630385,0.1337157987643424,0.0588785046728973,0.8493796526054591,0.2420760697305863,0.1100487100847916,0.730778863010268,0.6835975655571417,0.398335015136226,0.179795550210463,0.1089719626168224,0.1318765784561326
0.1700680272108843,0.1311782877316858,0.0560747663551403,0.8518610421836229,0.2396988906497623,0.1075230019844849,0.7325319308790382,0.6835224284318882,0.3978304742684157,0.1791190619362597,0.1102803738317756,0.1329746348962336
0.1628401360544217,0.1258826125330979,0.0570093457943923,0.8579404466501241,0.2293977812995245,0.1033736243911238,0.7280240420736288,0.6799909835449696,0.3949293642785065,0.1755111244738424,0.1063551401869158,0.1277039639837487
0.1588718820861678,0.1221315092674315,0.0546728971962616,0.8619106699751862,0.2246434231378763,0.0997654699621143,0.721763085399449,0.6752573446539935,0.391082240161453,0.1711515333734215,0.1002803738317756,0.1219940704952234
0.1645408163265306,0.126323918799647,0.0537383177570091,0.8570719602977668,0.2329635499207606,0.103012808948223,0.7236413724017029,0.6765346757833044,0.3920282542885973,0.1719783523752255,0.1014018691588785,0.1228725156473042
0.1704931972789115,0.131729920564872,0.0570093457943923,0.8513647642679901,0.2400950871632329,0.1080642251488363,0.7302779864763336,0.6818694116763092,0.3966321897073662,0.1776157546602525,0.1081308411214953,0.1307785220160316
0.1707766439909297,0.1320609002647838,0.0574766355140186,0.8511166253101737,0.2400950871632329,0.1084250405917373,0.734159779614325,0.6841235254339169,0.398335015136226,0.1797203848466626,0.1111214953271027,0.1342923026243549
0.1639739229024943,0.1257722859664606,0.0528037383177571,0.8575682382133996,0.23256735340729,0.102291178062421,0.7287753568745304,0.6802915320459838,0.3951185671039354,0.1765634395670475,0.106822429906542,0.1295706599319205
0.159297052154195,0.1220211827007943,0.0528037383177571,0.8616625310173698,0.226228209191759,0.0994046545192134,0.7218883045329325,0.6756330302802614,0.3913345105953582,0.1715273601924233,0.1006542056074766,0.1235313495113649
0.1631235827664399,0.1265445719329214,0.0593457943925235,0.8575682382133996,0.2286053882725832,0.1042756629983762,0.7232657150012521,0.6761589901570365,0.3917129162462159,0.1720535177390258,0.1022429906542056,0.1242999890194356
0.1719104308390022,0.1328331862312445,0.0570093457943923,0.8501240694789083,0.2420760697305863,0.1089662637560886,0.7291510142749812,0.6814937260500412,0.3958753784056508,0.1766386049308478,0.1079439252336448,0.1302294937959811
0.1709183673469388,0.1313989408649603,0.0542056074766354,0.8513647642679901,0.2420760697305863,0.1073425942630344,0.7327823691460055,0.6841986625591704,0.398335015136226,0.1791190619362597,0.1103738317757009,0.1337432744043043
0.1635487528344671,0.124558693733451,0.0500000000000001,0.8584367245657568,0.2333597464342313,0.1008479162908171,0.728900576008014,0.6803666691712374,0.3953077699293642,0.1758117859290439,0.1059813084112149,0.1282529922037993
0.1584467120181405,0.1218005295675198,0.0542056074766354,0.8622828784119106,0.2246434231378763,0.0994046545192134,0.7221387427998998,0.6754827560297544,0.3912714429868819,0.1718280216476247,0.1003738317757009,0.1225430987152739
0.1626984126984127,0.1262135922330097,0.0588785046728973,0.857816377171216,0.2286053882725832,0.1039148475554753,0.7218883045329325,0.6758584416560222,0.391965186680121,0.1726548406494287,0.1014953271028037,0.1241901833754254
0.1706349206349206,0.1327228596646072,0.0607476635514018,0.8507444168734493,0.2385103011093502,0.1095074869204401,0.7286501377410468,0.680817491922759,0.3960015136226034,0.1767889356584485,0.1070093457943925,0.1304491050840013
0.1700680272108843,0.1318402471315092,0.0588785046728973,0.8514888337468983,0.2385103011093502,0.1086054483131878,0.7320310543451038,0.6832970170561274,0.3979566094853683,0.1788935658448587,0.1095327102803738,0.1338530800483144
0.1621315192743764,0.1262135922330097,0.061214953271028,0.8581885856079404,0.2266244057052298,0.1042756629983762,0.7286501377410468,0.6803666691712374,0.3951816347124116,0.1761876127480456,0.1069158878504672,0.1292412429998902
0.1578798185941043,0.1219108561341571,0.0565420560747661,0.862406947890819,0.2226624405705229,0.0999458776835648,0.7236413724017029,0.6762341272822902,0.3915867810292633,0.1722790138304269,0.1018691588785046,0.1229823212913143
0.163407029478458,0.1266548984995587,0.0588785046728973,0.8573200992555832,0.2293977812995245,0.1042756629983762,0.7227648384673178,0.6766849500338117,0.3917129162462159,0.1725796752856283,0.1029906542056074,0.1238607664433951
0.171343537414966,0.1327228596646072,0.058411214953271,0.8503722084367246,0.2408874801901743,0.1091466714775391,0.7290257951414976,0.681343451799534,0.3954339051463168,0.1767137702946482,0.1079439252336448,0.1296804655759306
0.1703514739229024,0.1320609002647838,0.0588785046728973,0.8512406947890819,0.2393026941362915,0.1086054483131878,0.7325319308790382,0.683372154181381,0.3976412714429868,0.1793445580276608,0.1103738317757009,0.1330844405402437
0.1635487528344671,0.1259929390997352,0.055607476635514,0.8575682382133996,0.2309825673534072,0.1031932166696733,0.7294014525419483,0.6802915320459838,0.3950554994954591,0.1757366205652435,0.1059813084112149,0.1288020204238497
0.1595804988662131,0.1233451015004413,0.0574766355140186,0.8609181141439206,0.2246434231378763,0.1012087317337181,0.7233909341347358,0.6763092644075437,0.391523713420787,0.1721286831028262,0.1014018691588785,0.122652904359284
0.1638321995464852,0.1274271844660194,0.0607476635514018,0.8566997518610422,0.2293977812995245,0.1051777016056287,0.7235161532682193,0.6770606356600796,0.3922174571140262,0.1728803367408298,0.1022429906542056,0.1245196003074558
0.1710600907029478,0.132171226831421,0.0565420560747661,0.8508684863523573,0.2412836767036449,0.1082446328702868,0.7291510142749812,0.6820196859268164,0.3962537840565086,0.1776157546602525,0.1079439252336448,0.1315471615241023
0.1712018140589569,0.1309576345984112,0.0514018691588784,0.8514888337468983,0.2432646592709983,0.1064405556557821,0.7329075882794891,0.6841235254339169,0.3982088799192734,0.1793445580276608,0.1109345794392523,0.1344021082683649
0.1646825396825396,0.125441306266549,0.0495327102803739,0.8574441687344915,0.2353407290015847,0.1013891394551686,0.7291510142749812,0.6805169434217446,0.3956231079717456,0.1761124473842453,0.1064485981308411,0.1288020204238497
0.1588718820861678,0.1218005295675198,0.0532710280373833,0.8620347394540944,0.2254358161648177,0.0992242467977629,0.7227648384673178,0.676083853031783,0.3913975782038345,0.1713018641010222,0.1005607476635514,0.1222136817832436
0.1626984126984127,0.1266548984995587,0.061214953271028,0.8576923076923078,0.2274167987321711,0.1046364784412772,0.7235161532682193,0.6766849500338117,0.3915867810292633,0.1718280216476247,0.1018691588785046,0.1233117382233446
0.1692176870748299,0.1322815533980582,0.0635514018691588,0.8516129032258065,0.2353407290015847,0.1098683023633411,0.7291510142749812,0.6817942745510557,0.3954339051463168,0.1769392663860493,0.1080373831775701,0.1297902712199407
0.169359410430839,0.1313989408649603,0.0593457943925235,0.8521091811414393,0.2377179080824089,0.1082446328702868,0.7325319308790382,0.6838229769329026,0.3977674066599394,0.1792693926638605,0.1104672897196261,0.1337432744043043
0.1628401360544217,0.1259929390997352,0.0579439252336448,0.8579404466501241,0.2290015847860538,0.1035540321125743,0.7292762334084647,0.6802915320459838,0.3953708375378405,0.1756614552014431,0.1064485981308411,0.1294608542879103
0.1598639455782312,0.1226831421006178,0.0537383177570091,0.861166253101737,0.2266244057052298,0.1001262854050153,0.7228900576008014,0.6763092644075437,0.3915867810292633,0.1716025255562236,0.1016822429906541,0.1227627100032941
0.1648242630385487,0.1258826125330979,0.0514018691588784,0.8570719602977668,0.2345483359746434,0.1021107703409705,0.724267468069121,0.6777368697873619,0.3924697275479313,0.1729555021046302,0.1030841121495327,0.1242999890194356
0.1706349206349206,0.1319505736981465,0.0574766355140186,0.8511166253101737,0.2400950871632329,0.1084250405917373,0.7292762334084647,0.6820196859268164,0.3961907164480323,0.1773150932050511,0.1082242990654205,0.1306687163720215
0.1699263038548752,0.1313989408649603,0.0574766355140186,0.8517369727047146,0.2393026941362915,0.1078838174273858,0.7336589030803906,0.6845743481854384,0.3980827447023208,0.1797203848466626,0.1110280373831775,0.133413857472274
0.1625566893424036,0.1251103265666372,0.0551401869158878,0.858560794044665,0.2297939778129952,0.102291178062421,0.7290257951414976,0.680817491922759,0.3949924318869828,0.1763379434756464,0.1071028037383177,0.1279235752717689
0.1585884353741496,0.1221315092674315,0.055607476635514,0.8619106699751862,0.223851030110935,0.0999458776835648,0.7237665915351865,0.6761589901570365,0.3912083753784056,0.1718280216476247,0.1009345794392523,0.1216646535631931
0.1636904761904762,0.1267652250661959,0.058411214953271,0.8570719602977668,0.2301901743264658,0.1042756629983762,0.7231404958677685,0.6771357727853332,0.3919021190716447,0.172730006013229,0.1018691588785046,0.1229823212913143
0.1710600907029478,0.1325022065313327,0.058411214953271,0.8506203473945411,0.2404912836767035,0.1089662637560886,0.7290257951414976,0.6817191374258021,0.3956231079717456,0.1770144317498496,0.1074766355140186,0.1300098825079609
0.169501133786848,0.1315092674315975,0.0598130841121493,0.8519851116625311,0.2377179080824089,0.1084250405917373,0.7326571500125219,0.6836727026823952,0.397452068617558,0.1791942273000601,0.1102803738317756,0.133413857472274
0.1626984126984127,0.1259929390997352,0.0579439252336448,0.8579404466501241,0.2290015847860538,0.1035540321125743,0.7294014525419483,0.680441806296491,0.3949924318869828,0.1760372820204449,0.1071028037383177,0.1289118260678599
0.1578798185941043,0.122352162400706,0.0588785046728973,0.8621588089330026,0.2214738510301109,0.1008479162908171,0.7233909341347358,0.6759335787812758,0.3911453077699293,0.1714521948286229,0.101214953271028,0.1224332930712638
0.1625566893424036,0.1264342453662842,0.0607476635514018,0.857816377171216,0.2274167987321711,0.1044560707198267,0.7240170298021538,0.6771357727853332,0.3919021190716447,0.1725796752856283,0.1020560747663551,0.123750960799385
0.1689342403628118,0.1318402471315092,0.0626168224299063,0.8519851116625311,0.2353407290015847,0.1091466714775391,0.7299023290758828,0.6819445488015629,0.3960645812310797,0.1773150932050511,0.1082242990654205,0.1304491050840013
0.1687925170068027,0.1309576345984112,0.0588785046728973,0.8524813895781639,0.2369255150554675,0.1078838174273858,0.7331580265464563,0.6835975655571417,0.3975151362260343,0.1790438965724594,0.1102803738317756,0.1329746348962336
0.1639739229024943,0.1259929390997352,0.0542056074766354,0.8574441687344915,0.2321711568938192,0.1028324012267725,0.7285249186075632,0.6796904350439552,0.3947401614530776,0.175210463018641,0.1057943925233644,0.1282529922037993
0.1601473922902494,0.1222418358340688,0.0514018691588784,0.861166253101737,0.2282091917591124,0.0992242467977629,0.7231404958677685,0.676083853031783,0.3913345105953582,0.1713770294648226,0.1010280373831775,0.1228725156473042
0.1639739229024943,0.1259929390997352,0.0542056074766354,0.8574441687344915,0.2321711568938192,0.1028324012267725,0.724517906336088,0.6766849500338117,0.3920282542885973,0.1721286831028262,0.1019626168224299,0.1248490172394861
0.1709183673469388,0.1318402471315092,0.0560747663551403,0.8511166253101737,0.2412836767036449,0.1078838174273858,0.730778863010268,0.6818694116763092,0.3960645812310797,0.17708959711365,0.1076635514018691,0.1313275502360821
0.1704931972789115,0.1318402471315092,0.0579439252336448,0.8512406947890819,0.2396988906497623,0.1082446328702868,0.7332832456799399,0.6841235254339169,0.3975782038345106,0.1788935658448587,0.1100934579439252,0.1333040518282639
0.1635487528344671,0.126323918799647,0.0570093457943923,0.8574441687344915,0.2301901743264658,0.1037344398340248,0.7287753568745304,0.6801412577954767,0.3946140262361251,0.1752856283824413,0.1057943925233644,0.1290216317118699
0.1604308390022675,0.1220211827007943,0.0490654205607476,0.861166253101737,0.2293977812995245,0.0986830236334114,0.7230152767342849,0.676083853031783,0.3912714429868819,0.1714521948286229,0.1010280373831775,0.1228725156473042
0.1652494331065759,0.1256619593998235,0.0485981308411214,0.8570719602977668,0.2365293185419968,0.1015695471766191,0.722389181066867,0.6763844015327972,0.3917129162462159,0.1726548406494287,0.1014953271028037,0.1241901833754254
0.1712018140589569,0.1325022065313327,0.0579439252336448,0.8506203473945411,0.2408874801901743,0.1087858560346383,0.7285249186075632,0.681193177549027,0.3954339051463168,0.1773902585688515,0.1071962616822429,0.1306687163720215
0.1712018140589569,0.131729920564872,0.0546728971962616,0.8511166253101737,0.2420760697305863,0.1075230019844849,0.7327823691460055,0.683747839807649,0.3972628657921291,0.1794197233914612,0.1103738317757009,0.1340726913363346
0.1648242630385487,0.1255516328331862,0.0495327102803739,0.8573200992555832,0.2353407290015847,0.1015695471766191,0.7280240420736288,0.680441806296491,0.3942356205852674,0.1753607937462417,0.1057943925233644,0.1285824091358296
0.1608560090702948,0.1231244483671668,0.0523364485981308,0.8604218362282879,0.2286053882725832,0.1001262854050153,0.7218883045329325,0.6759335787812758,0.3908299697275479,0.1709260372820204,0.1009345794392523,0.1222136817832436
0.1641156462585034,0.1266548984995587,0.0570093457943923,0.8569478908188586,0.231378763866878,0.1039148475554753,0.7225144002003506,0.6768352242843189,0.3915867810292633,0.1719783523752255,0.1017757009345794,0.1244097946634456
0.1737528344671201,0.1338261253309796,0.0546728971962616,0.8487593052109181,0.2456418383518224,0.1093270791989896,0.7311545204107187,0.6829213314298594,0.3971997981836528,0.1785177390258568,0.1098130841121495,0.1326452179642033
0.1873582766439909,0.145631067961165,0.0602803738317755,0.8362282878411911,0.2622820919175911,0.1199711347645678,0.7424242424242423,0.6918626493350364,0.4057769929364278,0.1891912206855081,0.1221495327102803,0.1456022839573953
0.1960034013605442,0.1580979699911739,0.0845794392523363,0.8254342431761788,0.2638668779714738,0.1349449756449575,0.7483095416979714,0.697948756480577,0.4119576185671039,0.1966325917017438,0.1319626168224299,0.1539475129021631
0.2054988662131519,0.1724404236540159,0.1140186915887851,0.8131513647642681,0.2650554675118858,0.152444524625654,0.7551965940395692,0.7041100007513712,0.4184535822401614,0.2033223090799759,0.1417757009345794,0.1615241023388602
0.2254818594104308,0.1949470432480141,0.1434579439252336,0.7916873449131514,0.2801109350237717,0.1764387515785675,0.7664663160530929,0.7151551581636486,0.4296796165489404,0.2167769092002405,0.158411214953271,0.1759086417041836
0.2474489795918367,0.2176743159752868,0.1668224299065418,0.7693548387096775,0.3011093502377179,0.1995309399242288,0.7824943651389932,0.7286798407092944,0.4433022199798183,0.2329374624173181,0.1779439252336448,0.1943559898978807
0.2603458049886621,0.2323477493380406,0.1869158878504673,0.7554590570719604,0.3106180665610142,0.2154068194118708,0.7957675932882544,0.7404763693741078,0.4523208879919273,0.2442874323511726,0.1921495327102803,0.2081915010431535
0.2638888888888889,0.2384157105030891,0.2009345794392522,0.7504962779156328,0.3098256735340728,0.2229839437127909,0.800275482093664,0.7444586370125479,0.4567986881937436,0.2493986770895971,0.1982242990654205,0.2131327550236082
0.2728174603174603,0.2449249779346866,0.1985981308411214,0.7429280397022333,0.3232963549920761,0.2278549521919538,0.8015276734284998,0.7439326771357727,0.4578077699293642,0.2508268190018039,0.1998130841121495,0.2143406171077193
0.2804705215419501,0.2540820829655781,0.2126168224299063,0.7344913151364765,0.3280507131537242,0.238138192314631,0.8060355622339094,0.7488917274025095,0.4618440968718466,0.2553367408298256,0.205607476635514,0.2210387613923355
0.2879818594104308,0.2632391879964695,0.2266355140186916,0.7259305210918116,0.3324088748019017,0.2484214324373082,0.8129226145755071,0.7555789315500788,0.4675832492431886,0.2627029464822609,0.2142990654205607,0.2299330185571538
0.2875566893424036,0.2597087378640777,0.2130841121495325,0.7281637717121588,0.3375594294770205,0.2428287930723434,0.8151765589782118,0.7558043429258396,0.4672048435923309,0.2622519542994588,0.2133644859813084,0.2294937959811133
0.2746598639455782,0.2476831421006178,0.2046728971962616,0.7405707196029777,0.3232963549920761,0.2312826988995129,0.8071625344352616,0.7473889848974378,0.4607088799192734,0.254585087191822,0.204018691588785,0.2185132315801032
0.2576530612244898,0.2328993821712268,0.197663551401869,0.7563275434243176,0.3022979397781299,0.2179325275121774,0.7932632106185824,0.7384476669922608,0.4515640766902118,0.2433854479855682,0.191214953271028,0.2052267486548808
0.251984126984127,0.2246248896734333,0.1817757009345792,0.7633995037220843,0.3011093502377179,0.2080101028324011,0.7865013774104683,0.7314599143436772,0.445005045408678,0.2361695730607336,0.1815887850467289,0.1966619084220928
0.2453231292517006,0.2149161518093557,0.1626168224299066,0.7718362282878413,0.2999207606973059,0.1964640086595705,0.7811169546706737,0.7271770982042227,0.4417885973763874,0.2317348165965123,0.1764485981308411,0.1928187108817393
0.2285997732426303,0.1974845542806708,0.1439252336448598,0.7889578163771713,0.2844690966719493,0.1786036442359732,0.7746055597295266,0.7208655796829213,0.4340943491422804,0.221888153938665,0.1641121495327102,0.183924453716921
0.2062074829931972,0.1731023830538394,0.1144859813084109,0.8125310173697271,0.2654516640253566,0.1529857477900053,0.759579263711495,0.7068900743857539,0.4206609485368314,0.2060282621767889,0.1442056074766355,0.164598660371143
0.1892006802721088,0.1516990291262135,0.0799065420560748,0.8318858560794046,0.2567353407290015,0.1288111131156414,0.7426746806912096,0.6929897062138403,0.4079843592330978,0.1912958508719182,0.1251401869158878,0.1457120896014055
0.1785714285714285,0.1386804942630186,0.0598130841121493,0.8439205955334989,0.2503961965134706,0.1141980876781526,0.7325319308790382,0.6838981140581561,0.3997855701311806,0.1812236921226698,0.1121495327102803,0.134511913912375
0.1730442176870748,0.1340467784642542,0.058411214953271,0.8490074441687345,0.2428684627575277,0.110229117806242,0.7304032056098171,0.682620782928845,0.3973259334006054,0.1786680697534576,0.1086915887850467,0.1316569671681124
0.1702097505668934,0.131729920564872,0.0579439252336448,0.8514888337468983,0.2393026941362915,0.1082446328702868,0.7319058352116202,0.6844240739349312,0.3975151362260343,0.1797203848466626,0.1100934579439252,0.1329746348962336
0.163265306122449,0.1255516328331862,0.0546728971962616,0.8579404466501241,0.2309825673534072,0.102651993505322,0.7287753568745304,0.6805920805469982,0.3950554994954591,0.1764131088394468,0.1066355140186915,0.1285824091358296
0.159438775510204,0.1220211827007943,0.0523364485981308,0.8616625310173698,0.2266244057052298,0.0992242467977629,0.7226396193338342,0.6763844015327972,0.3913975782038345,0.1718280216476247,0.1013084112149532,0.122652904359284
0.163265306122449,0.126323918799647,0.0579439252336448,0.8575682382133996,0.2293977812995245,0.1037344398340248,0.7233909341347358,0.676985498534826,0.3921543895055499,0.172504509921828,0.1020560747663551,0.1232019325793346
0.1697845804988662,0.1319505736981465,0.0598130841121493,0.8514888337468983,0.2381141045958795,0.1087858560346383,0.7285249186075632,0.6814937260500412,0.3954969727547931,0.1770144317498496,0.1069158878504672,0.1300098825079609
0.1699263038548752,0.1311782877316858,0.0570093457943923,0.8518610421836229,0.2393026941362915,0.1075230019844849,0.7317806160781366,0.6839732511834097,0.3975782038345106,0.1792693926638605,0.1098130841121495,0.1335236631162841
0.1617063492063492,0.1253309796999117,0.0588785046728973,0.8588089330024815,0.2270206022187004,0.1031932166696733,0.7278988229401452,0.6802915320459838,0.3948662966700302,0.1755862898376428,0.1062616822429906,0.1289118260678599
0.159438775510204,0.1226831421006178,0.0551401869158878,0.8612903225806452,0.2254358161648177,0.1003066931264658,0.7228900576008014,0.6761589901570365,0.3911453077699293,0.1713018641010222,0.1005607476635514,0.1222136817832436
0.1645408163265306,0.1265445719329214,0.0546728971962616,0.8569478908188586,0.23256735340729,0.1033736243911238,0.7235161532682193,0.6772860470358404,0.3917759838546922,0.1721286831028262,0.1017757009345794,0.1235313495113649
0.1717687074829932,0.1322815533980582,0.0551401869158878,0.8504962779156328,0.2428684627575277,0.1080642251488363,0.7287753568745304,0.6817191374258021,0.3953708375378405,0.1769392663860493,0.106822429906542,0.1306687163720215
0.1717687074829932,0.131729920564872,0.0532710280373833,0.8508684863523573,0.2436608557844691,0.1073425942630344,0.7327823691460055,0.6841986625591704,0.3975151362260343,0.1792693926638605,0.1107476635514018,0.1333040518282639
0.1646825396825396,0.1257722859664606,0.0509345794392522,0.857196029776675,0.2345483359746434,0.10193036261952,0.7290257951414976,0.6812683146742805,0.3947401614530776,0.1760372820204449,0.1060747663551401,0.1281431865597891
0.159438775510204,0.1224624889673433,0.0542056074766354,0.8614143920595534,0.2258320126782884,0.0999458776835648,0.7230152767342849,0.6768352242843189,0.3912083753784056,0.1717528562838244,0.1010280373831775,0.1228725156473042
0.1641156462585034,0.1266548984995587,0.0565420560747661,0.8569478908188586,0.231378763866878,0.1039148475554753,0.7235161532682193,0.6772860470358404,0.3920282542885973,0.1723541791942273,0.1018691588785046,0.1240803777314153
0.1710600907029478,0.1325022065313327,0.0588785046728973,0.8506203473945411,0.2400950871632329,0.1089662637560886,0.7286501377410468,0.6818694116763092,0.3956861755802219,0.1771647624774503,0.1069158878504672,0.1299000768639508
0.1707766439909297,0.1318402471315092,0.0565420560747661,0.8511166253101737,0.2408874801901743,0.1080642251488363,0.7321562734785875,0.6844992110601847,0.3977674066599394,0.1791190619362597,0.1099065420560747,0.1331942461842538
0.163265306122449,0.1253309796999117,0.0542056074766354,0.8580645161290323,0.231378763866878,0.102291178062421,0.7277736038066616,0.6807423547975054,0.3949924318869828,0.1757366205652435,0.1060747663551401,0.1282529922037993
0.1588718820861678,0.1218005295675198,0.0532710280373833,0.8620347394540944,0.2254358161648177,0.0992242467977629,0.7226396193338342,0.6756330302802614,0.390640766902119,0.1710763680096212,0.1000934579439252,0.1224332930712638
0.1563208616780045,0.1148499558693733,0.0322429906542054,0.8671215880893302,0.2305863708399366,0.0894822298394371,0.7220135236664161,0.6748816590277256,0.385784561049445,0.1690469031870114,0.0928971962616822,0.112990007686395
0.1258503401360544,0.091902030008826,0.0355140186915886,0.8933002481389578,0.1870047543581616,0.0712610499729387,0.7195091409967442,0.665865203997295,0.3721619576185671,0.1556674684305472,0.070841121495327,0.0885033490721423
0.0586734693877551,0.0442409532215357,0.0551401869158878,0.9495037220843672,0.0843898573692551,0.036261952011546,0.7132481843225644,0.6475317454354196,0.3526109989909182,0.1228953698135899,0.0382242990654205,0.0456791479082024
0.0077947845804988,0.004082082965578,0.0528037383177571,0.9944168734491317,0.0146592709984152,0.0028865235432075,0.729526671675432,0.646179277180855,0.3588546922300706,0.1092152736019242,0.0071028037383177,0.0082354233007576
0.0330215419501133,0.0257060900264783,0.061214953271028,0.9710918114143922,0.045958795562599,0.0221901497384087,0.7902579514149761,0.6955443684724623,0.4300580221997981,0.1615303668069753,0.0278504672897196,0.0275612166465356
0.1595804988662131,0.1403353927625772,0.1294392523364487,0.8512406947890819,0.1941362916006339,0.1289915208370917,0.8655146506386175,0.7802239086332556,0.5674192734611503,0.3032922429344558,0.1399065420560747,0.1394531678928296
0.3446712018140589,0.3189541041482789,0.2757009345794393,0.6698511166253103,0.3910459587955626,0.3034457874797042,0.9332582018532432,0.8757231948305657,0.7184661957618566,0.4988725195429945,0.3367289719626168,0.319424618425387
0.558531746031746,0.5351941747572816,0.4864485981308411,0.4545905707196029,0.600633914421553,0.5208370918275301,0.9834710743801652,0.957322112855962,0.8611881937436932,0.7072309079975947,0.5580373831775701,0.5358515427692983
0.7655895691609977,0.7549646954986761,0.7341121495327103,0.2404466501240695,0.78486529318542,0.748331228576583,0.9938642624593036,0.9966188293635884,0.9771695257315842,0.907095610342754,0.7961682242990654,0.7562314702975732
0.941326530612245,0.9387687555163284,0.933644859813084,0.0601736972704713,0.9461172741679872,0.9372181129352334,0.9093413473578762,0.9365091291607184,0.9752144298688192,0.9931599518941672,0.9669158878504672,0.9367519490501812
0.987953514739229,0.988305383936452,0.9897196261682242,0.0119106699751861,0.987321711568938,0.9884539058271694,0.718382168795392,0.7716582763543466,0.8125630676084762,0.9009320505111243,0.9674766355140186,0.9842977929065556
0.8878968253968254,0.8844880847308032,0.8799065420560747,0.1141439205955335,0.8938193343898574,0.8823741656142884,0.4685699974956173,0.5328724922984446,0.5610494450050454,0.7121166566446182,0.8235514018691589,0.8831667947732514
0.7089002267573697,0.6961606354810239,0.672429906542056,0.2983870967741936,0.7317749603803486,0.6882554573335739,0.2255196594039568,0.2586971222481028,0.2926337033299697,0.4788785327720986,0.6246728971962617,0.6994619523443505
0.5007086167800454,0.47716240070609,0.4313084112149533,0.5126550868486353,0.5427892234548336,0.4627458055204761,0.0364387678437264,0.0473363889097603,0.0688067608476286,0.2539085989176187,0.3745794392523364,0.4813879433402876
0.2991780045351474,0.2608120035304501,0.1799065420560747,0.7224565756823822,0.3676703645007924,0.2374165614288292,0.0200350613573753,0.0085656322789091,0.0018289606458123,0.0751653638003607,0.1748598130841121,0.262435489184144
0.1777210884353741,0.1334951456310679,0.0406542056074767,0.8471464019851117,0.2571315372424723,0.1062601479343316,0.1723015276734284,0.1253287249229845,0.0660948536831483,0.0033072760072158,0.0655140186915887,0.1318765784561326
0.1198979591836734,0.080648720211827,0.0074766355140188,0.9022332506203476,0.190174326465927,0.0566480245354501,0.3642624593037816,0.3018258321436622,0.1788597376387487,0.0182651834034876,0.0323364485981308,0.0781816185351927
0.0846088435374149,0.0597969991173874,0.0359813084112148,0.9294044665012406,0.1287638668779714,0.0452823380840699,0.532556974705735,0.460064617927718,0.2781281533804238,0.0696782922429344,0.032803738317757,0.0616009662896672
0.0916950113378684,0.064982347749338,0.0341121495327103,0.9234491315136476,0.1398573692551505,0.0490709002345299,0.6308539944903581,0.5695394094221955,0.3355196770938445,0.1158298256163559,0.045607476635514,0.0684089162182936
0.1346371882086167,0.0933362753751102,0.0130841121495328,0.8887096774193549,0.2083993660855784,0.0681941187082806,0.6888304532932632,0.6327297317604629,0.3673688193743692,0.1447684906794948,0.068411214953271,0.0938838256286373
0.1609977324263038,0.1186010591350396,0.0327102803738316,0.8629032258064517,0.2369255150554675,0.0927295688255456,0.718382168795392,0.6675933578781276,0.3862260343087789,0.1657396271797955,0.0932710280373831,0.1177116503788294
0.1709183673469388,0.1319505736981465,0.0565420560747661,0.8511166253101737,0.2408874801901743,0.1080642251488363,0.7277736038066616,0.6809677661732662,0.3952447023208879,0.1763379434756464,0.1070093457943925,0.1307785220160316
0.1709183673469388,0.1323918799646954,0.0579439252336448,0.8507444168734493,0.2404912836767035,0.1087858560346383,0.7319058352116202,0.6835975655571417,0.3969475277497477,0.1790438965724594,0.11,0.1341824969803448
0.1641156462585034,0.1257722859664606,0.0523364485981308,0.8575682382133996,0.2329635499207606,0.102291178062421,0.7278988229401452,0.6796152979187017,0.3942986881937437,0.1753607937462417,0.1055140186915887,0.1286922147798396
0.1587301587301587,0.1218005295675198,0.0537383177570091,0.8621588089330026,0.225039619651347,0.0994046545192134,0.7225144002003506,0.6752573446539935,0.3912083753784056,0.1713770294648226,0.1007476635514018,0.1227627100032941
0.163407029478458,0.1257722859664606,0.0551401869158878,0.857816377171216,0.2309825673534072,0.1028324012267725,0.7227648384673178,0.6769103614095724,0.3920282542885973,0.1720535177390258,0.1018691588785046,0.1239705720874052
0.1706349206349206,0.1316195939982347,0.0560747663551403,0.8513647642679901,0.2404912836767035,0.1078838174273858,0.728274480340596,0.6816440003005484,0.3958753784056508,0.1768641010222489,0.1077570093457943,0.1303392994399912
0.1700680272108843,0.1315092674315975,0.0574766355140186,0.8517369727047146,0.2393026941362915,0.1078838174273858,0.7325319308790382,0.6843489368096776,0.3981458123107971,0.1797203848466626,0.1109345794392523,0.1341824969803448
0.1635487528344671,0.1251103265666372,0.0518691588785046,0.8580645161290323,0.23256735340729,0.1017499548980696,0.7280240420736288,0.6807423547975054,0.3951816347124116,0.1763379434756464,0.1063551401869158,0.1284726034918194
0.1591553287981859,0.1216902030008826,0.0523364485981308,0.8620347394540944,0.226228209191759,0.0988634313548619,0.7221387427998998,0.676083853031783,0.391523713420787,0.1722038484666266,0.101214953271028,0.122652904359284
0.1635487528344671,0.1259929390997352,0.055607476635514,0.8576923076923078,0.2309825673534072,0.103012808948223,0.7230152767342849,0.6771357727853332,0.3922174571140262,0.172730006013229,0.1020560747663551,0.1242999890194356
0.1706349206349206,0.1318402471315092,0.0570093457943923,0.8512406947890819,0.2404912836767035,0.1080642251488363,0.728900576008014,0.6818694116763092,0.3960015136226034,0.17708959711365,0.1078504672897196,0.1308883276600417
0.171343537414966,0.1313989408649603,0.0528037383177571,0.8512406947890819,0.2432646592709983,0.1069817788201334,0.7317806160781366,0.6841235254339169,0.3979566094853683,0.1787432351172579,0.1105607476635514,0.1344021082683649
0.1648242630385487,0.1258826125330979,0.0509345794392522,0.8570719602977668,0.2349445324881141,0.1021107703409705,0.728274480340596,0.6801412577954767,0.3949293642785065,0.1761876127480456,0.1065420560747663,0.1296804655759306
0.1604308390022675,0.1222418358340688,0.0495327102803739,0.861166253101737,0.2293977812995245,0.0988634313548619,0.7222639619333834,0.6756330302802614,0.3913345105953582,0.1719031870114251,0.1014018691588785,0.1238607664433951
0.1631235827664399,0.1261032656663724,0.0574766355140186,0.8576923076923078,0.2297939778129952,0.1035540321125743,0.7225144002003506,0.6762341272822902,0.3911453077699293,0.1719031870114251,0.101214953271028,0.1236411551553749
0.1710600907029478,0.1320609002647838,0.0565420560747661,0.8508684863523573,0.2408874801901743,0.1082446328702868,0.729526671675432,0.6806672176722519,0.3955600403632693,0.1767889356584485,0.1071962616822429,0.1300098825079609
0.1712018140589569,0.1322815533980582,0.0570093457943923,0.8507444168734493,0.2412836767036449,0.1084250405917373,0.7317806160781366,0.6831467428056202,0.398335015136226,0.1788184004810583,0.1104672897196261,0.1325354123201932
0.1645408163265306,0.1266548984995587,0.0551401869158878,0.8568238213399505,0.23256735340729,0.1035540321125743,0.728274480340596,0.6802163949207303,0.3949924318869828,0.1758869512928442,0.1064485981308411,0.1283627978478093
0.159438775510204,0.123234774933804,0.0574766355140186,0.8609181141439206,0.2242472266244057,0.1012087317337181,0.7227648384673178,0.6762341272822902,0.3913345105953582,0.1722790138304269,0.1014953271028037,0.1235313495113649
0.163265306122449,0.1269858781994704,0.0607476635514018,0.857196029776675,0.2282091917591124,0.1048168861627277,0.722389181066867,0.6763844015327972,0.3918390514631684,0.1723541791942273,0.1022429906542056,0.1239705720874052
0.1692176870748299,0.1322815533980582,0.0635514018691588,0.8516129032258065,0.2357369255150554,0.1098683023633411,0.728900576008014,0.6812683146742805,0.3956861755802219,0.1770144317498496,0.1079439252336448,0.1300098825079609
0.1690759637188208,0.131288614298323,0.0598130841121493,0.8522332506203475,0.2369255150554675,0.1082446328702868,0.7325319308790382,0.6836727026823952,0.3975782038345106,0.1791942273000601,0.1101869158878504,0.1339628856923246
0.1636904761904762,0.1259929390997352,0.0551401869158878,0.8575682382133996,0.231378763866878,0.103012808948223,0.728900576008014,0.6805169434217446,0.3948032290615539,0.1755862898376428,0.1071028037383177,0.1295706599319205
0.1607142857142857,0.1233451015004413,0.0537383177570091,0.8602977667493797,0.2278129952456418,0.1006675085693668,0.7230152767342849,0.6765346757833044,0.3913975782038345,0.1714521948286229,0.1019626168224299,0.1232019325793346
0.1646825396825396,0.1264342453662842,0.0537383177570091,0.8569478908188586,0.2333597464342313,0.103012808948223,0.7235161532682193,0.6765346757833044,0.3916498486377396,0.1722790138304269,0.1017757009345794,0.1244097946634456
0.1706349206349206,0.1319505736981465,0.0574766355140186,0.8511166253101737,0.2400950871632329,0.1084250405917373,0.7302779864763336,0.6817191374258021,0.3954339051463168,0.17708959711365,0.1080373831775701,0.1315471615241023
0.169501133786848,0.1320609002647838,0.061214953271028,0.8516129032258065,0.2369255150554675,0.1091466714775391,0.7340345604808415,0.6838229769329026,0.3979566094853683,0.1795700541190619,0.1106542056074766,0.1357197759964862
0.1635487528344671,0.1252206531332744,0.0523364485981308,0.8580645161290323,0.2321711568938192,0.10193036261952,0.7297771099423992,0.6801412577954767,0.3948032290615539,0.1758869512928442,0.1062616822429906,0.1295706599319205
0.1601473922902494,0.1227934686672551,0.0532710280373833,0.8609181141439206,0.2270206022187004,0.0999458776835648,0.7236413724017029,0.676985498534826,0.3917129162462159,0.1722790138304269,0.1019626168224299,0.1234215438673547
0.1721938775510204,0.1332744924977934,0.0579439252336448,0.8497518610421837,0.2420760697305863,0.1095074869204401,0.7277736038066616,0.6836727026823952,0.4011099899091826,0.1824263379434756,0.1090654205607476,0.1300098825079609
0.1950113378684807,0.1529126213592233,0.0654205607476637,0.8286600496277916,0.2706022187004754,0.1270070359011365,0.7421738041572752,0.6990758133593807,0.4223637739656911,0.2039236319903788,0.1275700934579439,0.1479082024816075
0.2110260770975056,0.1687996469549867,0.0799065420560748,0.8127791563275434,0.287242472266244,0.1428829153887786,0.7545704983721513,0.7129761815312946,0.4428607467204843,0.2247444377630787,0.1457009345794392,0.1638300208630723
0.2202380952380952,0.1781774051191527,0.0897196261682244,0.8034739454094293,0.295958795562599,0.152444524625654,0.7615827698472326,0.7226688706890073,0.4591952573158425,0.2396271797955502,0.156822429906542,0.17206544416383
0.2332766439909297,0.1924095322153574,0.1070093457943925,0.7898263027295286,0.3066561014263074,0.1672379577845931,0.7650889055847734,0.7314599143436772,0.4755297679112007,0.2553367408298256,0.1669158878504672,0.1786537828044361
0.2573696145124716,0.2152471315092674,0.1247663551401868,0.766377171215881,0.3328050713153724,0.1894281075230019,0.7762334084648134,0.7455856938913518,0.4960267406659939,0.2754810583283223,0.1825233644859813,0.1938069616778302
0.2790532879818594,0.2348852603706972,0.1359813084112147,0.7457816377171216,0.358161648177496,0.2076492873895002,0.7925118958176809,0.7628672326996768,0.5190464177598384,0.2990829825616355,0.2028971962616822,0.2146700340397496
0.2960600907029478,0.2520962047661076,0.1523364485981307,0.7287841191066998,0.3751980982567353,0.2249684286487461,0.8069120961682945,0.7780449320009015,0.5415615539858728,0.3217829224293446,0.2205607476635513,0.2310310749972548
0.3066893424036281,0.2637908208296557,0.1672897196261681,0.7174937965260546,0.3839144215530903,0.2372361537073787,0.8126721763085398,0.7881133067848823,0.5573284561049445,0.3375676488274203,0.2323364485981308,0.2392664982980125
0.3187358276643991,0.2762577228596646,0.1803738317757009,0.7052109181141439,0.3950079239302694,0.2500451019303626,0.8174305033809166,0.7974303103163273,0.5726538849646822,0.3526758869512928,0.2417757009345794,0.2469528933787196
0.3378684807256236,0.2946822594880847,0.194859813084112,0.6864764267990074,0.4156101426307448,0.2679054663539599,0.8253193087903831,0.8084003306033511,0.591132694248234,0.370640408899579,0.2558878504672897,0.259251125507851
0.3562925170068027,0.3121138570167696,0.208411214953271,0.6686104218362283,0.4354199683042789,0.2848637921703048,0.8347107438016529,0.8191449395146141,0.6050075681130171,0.3868009621166566,0.2686915887850467,0.2753925551773361
0.3618197278911565,0.3164165931156222,0.208411214953271,0.6637717121588089,0.4433438985736925,0.2882915388778639,0.8418482344102178,0.8247802239086333,0.6135216952573158,0.3943926638604931,0.2771028037383177,0.2823103107499725
0.3662131519274376,0.3199470432480141,0.2088785046728973,0.6599255583126551,0.4492868462757527,0.2911780624210716,0.8451039318807914,0.8303403711773987,0.6229187689202825,0.4025856885147323,0.2832710280373831,0.2848358405622049
0.3744331065759637,0.3281112091791703,0.2163551401869158,0.6516129032258065,0.457606973058637,0.2994768176077936,0.8467317806160781,0.836125929821925,0.6335141271442987,0.413334335538184,0.2888785046728971,0.2880202042384978
0.3897392290249433,0.3427846425419241,0.2280373831775699,0.6367245657568239,0.4742472266244057,0.3135486198809309,0.8523666416228399,0.8449169734765947,0.6471367305751765,0.4249849669272399,0.3000934579439251,0.295706599319205
0.4047619047619047,0.3576787290379524,0.2415887850467289,0.6218362282878412,0.4893026941362915,0.3285224607613205,0.8646381167042324,0.8567886392666616,0.6627144298688192,0.4407696933253157,0.3135514018691588,0.3116284177006698
0.4160997732426303,0.3672771403353927,0.2448598130841121,0.6114143920595534,0.5039619651347068,0.3368212159480425,0.873153017781117,0.8655796829213314,0.6733728557013117,0.4539987973541791,0.3241121495327102,0.321510925661579
0.4143990929705215,0.366063548102383,0.2448598130841121,0.6129032258064516,0.501188589540412,0.3359191773407902,0.8737791134485349,0.8672326996769103,0.6778506559031281,0.4585087191822008,0.3266355140186915,0.3228285933897002
0.4109977324263038,0.3666151809355693,0.2584112149532708,0.6140198511166254,0.4908874801901743,0.3389861086054482,0.8678938141748058,0.8649785859193027,0.6792381432896064,0.4584335538184004,0.3241121495327102,0.3201932579334577
0.4179421768707483,0.3720211827007944,0.2588785046728971,0.6079404466501241,0.5003961965134707,0.3434963016417103,0.8691460055096418,0.866932151175896,0.6820761856710392,0.4606885147324113,0.3266355140186915,0.3222795651696497
0.4253117913832199,0.3781994704324801,0.260747663551402,0.6012406947890819,0.509904912836767,0.3489085332852246,0.8750313047833708,0.8721166128183936,0.6865539858728557,0.4657997594708358,0.3323364485981308,0.3291973207422861
0.4247448979591837,0.3777581641659311,0.260747663551402,0.6017369727047147,0.5091125198098256,0.3485477178423236,0.8794139744552967,0.8739950409497331,0.6875,0.4673782321106434,0.3344859813084112,0.332271878774569
0.415391156462585,0.368270079435128,0.2514018691588786,0.611166253101737,0.5,0.3389861086054482,0.8755321813173053,0.8687354421819821,0.6797426841574167,0.4600871918220084,0.3275700934579439,0.3251345119139123
0.4085884353741497,0.3604368932038835,0.2406542056074765,0.6186104218362283,0.4948494453248811,0.3305069456972759,0.8673929376408716,0.8600195356525658,0.6697149344096871,0.4498647023451593,0.3167289719626168,0.3130558910728011
0.4029195011337869,0.3561341571050309,0.2411214953271027,0.6234491315136477,0.4869255150554675,0.3270791989897166,0.8617580766341096,0.8551356225110827,0.6625882946518667,0.4412958508719182,0.3103738317757009,0.3087734709564071
0.3988095238095238,0.3515004413062665,0.2350467289719625,0.6277915632754343,0.4837559429477019,0.3220277827891034,0.8618832957675931,0.8528063716282215,0.6553355196770938,0.4342303066746843,0.3093457943925233,0.3066871637202152
0.3894557823129251,0.3420123565754633,0.2257009345794391,0.6372208436724566,0.4746434231378763,0.312466173552228,0.8585023791635361,0.8471710872342023,0.6449293642785066,0.4250601322910402,0.3018691588785047,0.3008674645876797
0.3715986394557823,0.3236981465136805,0.2070093457943924,0.6554590570719604,0.457606973058637,0.2938841782428288,0.8484848484848485,0.8341723645653317,0.6282795156407669,0.4079975947083584,0.2869158878504672,0.2881300098825079
0.3524659863945578,0.3075904677846425,0.2018691588785046,0.6728287841191067,0.4330427892234548,0.2798123759696915,0.8352116203355873,0.8189195281388534,0.6094853683148335,0.3884546001202645,0.269626168224299,0.2717689689250027
0.3401360544217687,0.2960061782877317,0.1934579439252337,0.6847394540942929,0.4195721077654517,0.2686270972397618,0.8265715001252191,0.8092268389811405,0.59289858728557,0.3724443776307877,0.2571028037383177,0.2607884045239925
0.3323412698412698,0.286297440423654,0.1775700934579439,0.6935483870967742,0.4152139461172741,0.2576222262312826,0.8240671174555472,0.8038921030881357,0.5792759838546921,0.359591100420926,0.2495327102803738,0.2560667618315581
0.3149092970521542,0.2707413945278022,0.1696261682242988,0.7100496277915633,0.394215530903328,0.2433700162366948,0.8183070373153017,0.7935983169283942,0.5628153380423814,0.3427540589296452,0.2385046728971962,0.2464038651586691
0.2916666666666667,0.2488967343336275,0.1542056074766352,0.7325062034739455,0.3684627575277338,0.2226231282698899,0.8049085900325569,0.7764670523705763,0.5416246215943491,0.3207306073361395,0.2181308411214953,0.2288349621170528
0.2708333333333333,0.2263901147396293,0.1271028037383176,0.7542183622828785,0.350633914421553,0.1989897167598772,0.7878787878787878,0.7588849650612368,0.516965186680121,0.2960012026458208,0.1978504672897196,0.208630723619194
0.2597789115646258,0.2146954986760812,0.1140186915887851,0.7656327543424318,0.3407290015847861,0.1869023994226952,0.7773603806661658,0.7465624765196484,0.4977926337033299,0.2772098616957306,0.1835514018691588,0.195783463270012
0.2481575963718821,0.2037731685789938,0.10607476635514,0.776923076923077,0.3276545166402536,0.1764387515785675,0.7721011770598547,0.7380719813659928,0.4817103935418769,0.2627029464822609,0.1741121495327102,0.1878774569012847
0.2290249433106576,0.1856796116504854,0.0925233644859814,0.795409429280397,0.3070522979397781,0.1589392025978711,0.7657150012521913,0.7264257269516867,0.4640514631685166,0.2450390859891761,0.1611214953271028,0.1773361150763149
0.2064909297052154,0.1636142983230362,0.0738317757009346,0.8176178660049629,0.2832805071315372,0.1374706837452642,0.7521913348359629,0.7100458336464046,0.44191473259334,0.2230907997594708,0.1425233644859812,0.1602064346107389
0.1862244897959183,0.1429832303618712,0.0528037383177571,0.8382133995037221,0.2638668779714738,0.1165433880570088,0.7362885048835461,0.6938913517168832,0.4200933400605449,0.1998647023451593,0.1221495327102803,0.1413198638410014
0.1740362811791383,0.1332744924977934,0.0518691588785046,0.8490074441687345,0.2472266244057052,0.1082446328702868,0.7268970698722764,0.6841235254339169,0.4030020181634712,0.1837793144918821,0.1091588785046728,0.1304491050840013
0.1709183673469388,0.1318402471315092,0.0560747663551403,0.8511166253101737,0.2412836767036449,0.1078838174273858,0.729526671675432,0.68209482305207,0.3971997981836528,0.1783674082982561,0.1076635514018691,0.1313275502360821
0.1706349206349206,0.1318402471315092,0.0570093457943923,0.8512406947890819,0.2400950871632329,0.1082446328702868,0.7329075882794891,0.6835975655571417,0.3975151362260343,0.1794197233914612,0.1102803738317756,0.1338530800483144
0.1629818594104308,0.1251103265666372,0.0537383177570091,0.8584367245657568,0.2309825673534072,0.1021107703409705,0.728274480340596,0.6795401607934479,0.3944248234106962,0.1753607937462417,0.1058878504672897,0.1291314373558801
0.1585884353741496,0.1219108561341571,0.0546728971962616,0.8621588089330026,0.2246434231378763,0.0995850622406638,0.7231404958677685,0.6757833045307686,0.3908930373360242,0.1717528562838244,0.1013084112149532,0.1233117382233446
0.1631235827664399,0.1259929390997352,0.0570093457943923,0.857816377171216,0.2297939778129952,0.1033736243911238,0.7238918106686701,0.6762341272822902,0.3919021190716447,0.1720535177390258,0.1020560747663551,0.1234215438673547
0.1707766439909297,0.1322815533980582,0.058411214953271,0.8509925558312657,0.2400950871632329,0.1087858560346383,0.7296518908089156,0.6812683146742805,0.3962537840565086,0.1770144317498496,0.1082242990654205,0.1311079389480619
0.1700680272108843,0.1323918799646954,0.0607476635514018,0.8511166253101737,0.2381141045958795,0.1093270791989896,0.7332832456799399,0.6839732511834097,0.3980827447023208,0.1795700541190619,0.1105607476635514,0.1346217195563852
0.1629818594104308,0.1256619593998235,0.0560747663551403,0.8580645161290323,0.2301901743264658,0.1028324012267725,0.7290257951414976,0.6801412577954767,0.3947401614530776,0.1760372820204449,0.1064485981308411,0.1290216317118699
0.159438775510204,0.1222418358340688,0.0537383177570091,0.8615384615384617,0.2258320126782884,0.0997654699621143,0.7232657150012521,0.6757833045307686,0.391523713420787,0.1713018641010222,0.1011214953271028,0.1227627100032941
0.1636904761904762,0.1264342453662842,0.0570093457943923,0.8573200992555832,0.2305863708399366,0.1037344398340248,0.7231404958677685,0.6765346757833044,0.3920913218970736,0.1722038484666266,0.102429906542056,0.1233117382233446
0.1696428571428571,0.1323918799646954,0.0626168224299063,0.8513647642679901,0.2365293185419968,0.1096878946418906,0.7281492612071124,0.6810429032985198,0.3956231079717456,0.1767889356584485,0.1072897196261682,0.1302294937959811
0.169501133786848,0.1320609002647838,0.061214953271028,0.8516129032258065,0.2369255150554675,0.1091466714775391,0.7321562734785875,0.6832970170561274,0.3973890010090817,0.1793445580276608,0.1104672897196261,0.1342923026243549
0.1631235827664399,0.1251103265666372,0.0532710280373833,0.8583126550868487,0.231378763866878,0.10193036261952,0.7294014525419483,0.6806672176722519,0.3947401614530776,0.1764882742032471,0.1066355140186915,0.1297902712199407
0.1595804988662131,0.1220211827007943,0.0518691588785046,0.8615384615384617,0.2270206022187004,0.0992242467977629,0.7230152767342849,0.6763092644075437,0.3910191725529768,0.1715273601924233,0.1016822429906541,0.123750960799385
0.1638321995464852,0.1253309796999117,0.0518691588785046,0.8579404466501241,0.2329635499207606,0.1017499548980696,0.7233909341347358,0.6771357727853332,0.391523713420787,0.1723541791942273,0.1023364485981308,0.1247392115954759
0.1697845804988662,0.132171226831421,0.061214953271028,0.8514888337468983,0.2373217115689381,0.1091466714775391,0.7290257951414976,0.681193177549027,0.3952447023208879,0.1770144317498496,0.1072897196261682,0.1313275502360821
0.1700680272108843,0.1325022065313327,0.0616822429906542,0.8511166253101737,0.2377179080824089,0.1095074869204401,0.7317806160781366,0.683372154181381,0.3975151362260343,0.1795700541190619,0.1099065420560747,0.1341824969803448
0.1639739229024943,0.126323918799647,0.055607476635514,0.8573200992555832,0.2317749603803486,0.1033736243911238,0.728274480340596,0.6806672176722519,0.3953077699293642,0.1766386049308478,0.1067289719626168,0.1295706599319205
0.1598639455782312,0.1230141218005295,0.0551401869158878,0.8609181141439206,0.2258320126782884,0.1006675085693668,0.7235161532682193,0.6763844015327972,0.3912714429868819,0.171677690920024,0.1015887850467289,0.1236411551553749
0.1643990929705215,0.1264342453662842,0.0546728971962616,0.8570719602977668,0.23256735340729,0.1031932166696733,0.7235161532682193,0.6764595386580509,0.3916498486377396,0.1720535177390258,0.1020560747663551,0.1247392115954759
0.1702097505668934,0.132171226831421,0.0598130841121493,0.8512406947890819,0.2385103011093502,0.1089662637560886,0.7297771099423992,0.6814185889247877,0.3954339051463168,0.1768641010222489,0.1079439252336448,0.1316569671681124
0.169501133786848,0.1313989408649603,0.0588785046728973,0.8519851116625311,0.2381141045958795,0.1082446328702868,0.7325319308790382,0.6844240739349312,0.3977674066599394,0.1802465423932651,0.1110280373831775,0.1349511364884155
0.1622732426303854,0.1244483671668137,0.0532710280373833,0.8590570719602978,0.2301901743264658,0.1013891394551686,0.7285249186075632,0.680441806296491,0.3950554994954591,0.1767889356584485,0.1067289719626168,0.1300098825079609
0.1585884353741496,0.1220211827007943,0.0551401869158878,0.8620347394540944,0.2242472266244057,0.0997654699621143,0.7222639619333834,0.6766849500338117,0.3914606458123107,0.1719783523752255,0.1007476635514018,0.1235313495113649
0.1619897959183673,0.125441306266549,0.058411214953271,0.858560794044665,0.2278129952456418,0.1031932166696733,0.7231404958677685,0.6771357727853332,0.3915867810292633,0.1722790138304269,0.1007476635514018,0.1239705720874052
0.169501133786848,0.1319505736981465,0.061214953271028,0.8516129032258065,0.2369255150554675,0.1091466714775391,0.7292762334084647,0.6812683146742805,0.3956231079717456,0.17708959711365,0.1067289719626168,0.1308883276600417
0.1697845804988662,0.1315092674315975,0.0579439252336448,0.8518610421836229,0.2385103011093502,0.1080642251488363,0.7329075882794891,0.6834472913066345,0.3973259334006054,0.1790438965724594,0.1100934579439252,0.1337432744043043
0.1624149659863945,0.1253309796999117,0.0560747663551403,0.858560794044665,0.2293977812995245,0.102651993505322,0.729526671675432,0.6801412577954767,0.3948662966700302,0.1756614552014431,0.1064485981308411,0.1286922147798396
0.1577380952380952,0.1211385701676964,0.0542056074766354,0.8629032258064517,0.2234548335974643,0.0988634313548619,0.7230152767342849,0.6758584416560222,0.3908299697275479,0.1710012026458208,0.1011214953271028,0.1232019325793346
0.1615646258503401,0.1249999999999999,0.0579439252336448,0.8590570719602978,0.2270206022187004,0.102651993505322,0.7236413724017029,0.6768352242843189,0.3912714429868819,0.1716025255562236,0.1016822429906541,0.1241901833754254
0.1690759637188208,0.1327228596646072,0.0658878504672895,0.8514888337468983,0.2345483359746434,0.110589933249143,0.7287753568745304,0.6815688631752949,0.3953708375378405,0.1769392663860493,0.1072897196261682,0.1308883276600417
0.169501133786848,0.1322815533980582,0.0626168224299063,0.8514888337468983,0.2361331220285261,0.1095074869204401,0.7320310543451038,0.6838981140581561,0.3978304742684157,0.178968731208659,0.1101869158878504,0.1329746348962336
0.163407029478458,0.1255516328331862,0.0542056074766354,0.8579404466501241,0.231378763866878,0.1024715857838715,0.728274480340596,0.6799909835449696,0.3948662966700302,0.1756614552014431,0.1062616822429906,0.1290216317118699
0.1600056689342403,0.1215798764342453,0.0485981308411214,0.8616625310173698,0.2290015847860538,0.0981418004690601,0.7225144002003506,0.6763092644075437,0.391523713420787,0.1716025255562236,0.1015887850467289,0.1236411551553749
0.1641156462585034,0.1255516328331862,0.0518691588785046,0.8576923076923078,0.2333597464342313,0.1021107703409705,0.7231404958677685,0.676985498534826,0.3920282542885973,0.1723541791942273,0.1022429906542056,0.1248490172394861
