Lead I,Lead II,Lead III,aVR,aVL,aVF,V1,V2,V3,V4,V5,V6
0.5129710432368109,0.4638019801980197,0.4515470111144488,0.5252042132416166,0.5573642401354343,0.4700437647769002,0.5300889096864764,0.5942492012779552,0.5745924967658472,0.4166519668371846,0.3272338294870044,0.2719729367460267
0.5156683855612852,0.455049504950495,0.4361670171222589,0.5302020636285468,0.5762469071493684,0.4580210272146486,0.5356106691623771,0.6048988285410011,0.5842173350582147,0.4221644028929264,0.3302380627247485,0.2705687113040148
0.5234430781435938,0.4544950495049504,0.4294382697506759,0.5279987102321583,0.5899205625732517,0.4548518537149755,0.5500233972859148,0.617749378771743,0.5959120310478654,0.4298818133709648,0.3372024215940644,0.2781642943767153
0.5328044426814756,0.4585346534653465,0.428477020126164,0.5220872742906277,0.5986456569865868,0.4570149403893555,0.5656527842770238,0.630386936457224,0.6058990944372574,0.4383489151525842,0.3462151213072966,0.2871641028914278
0.5339151130503769,0.4575445544554455,0.4261339741664163,0.5223559759243336,0.6020315145201197,0.4554052014688867,0.5705194197473092,0.6338658146964856,0.6083311772315653,0.4399364967366377,0.348263462151213,0.2894619263419927
0.5244744149147165,0.4521584158415841,0.4251126464403725,0.5292347377472054,0.595390024742805,0.4515820715327732,0.5608797379503977,0.6255591054313099,0.601966364812419,0.4350414535191391,0.3427101825299285,0.282376970702751
0.517810392701309,0.4494653465346534,0.4260738960648844,0.5332652622527945,0.5888787602552416,0.4502741586598923,0.5535797847449695,0.6171104011359603,0.5973091849935316,0.4308079026283294,0.3380672766170512,0.2759941277845152
0.5237604125347085,0.4529108910891088,0.4267948332832682,0.5289660361134996,0.5930459695272822,0.4527893757231249,0.5624707533926064,0.6240681576144834,0.6037774902975419,0.4360557417533956,0.3421184396194637,0.2811004021191038
0.5305037683458946,0.4573069306930692,0.4283568639231,0.5236994840928633,0.5969527282198203,0.4562100709291212,0.5780065512400561,0.6379126730564431,0.6135058214747735,0.445140236373258,0.3509035459055942,0.291312950788281
0.5305037683458946,0.4566732673267326,0.4273355361970562,0.5241294067067928,0.5979945305378304,0.4553548971276221,0.5759475900795508,0.6396166134185303,0.6136093143596377,0.4463750220497441,0.3524056625244662,0.2924618625135635
0.5193970646568823,0.4516435643564356,0.4281766296185041,0.5312768701633706,0.5879671832269827,0.4525378540168016,0.5629386991109031,0.627973020944267,0.6066752910737386,0.4395396013406244,0.3456233783968319,0.2842918235782217
0.5160650535501786,0.4502574257425742,0.428597176329228,0.5333727429062769,0.5848417762729522,0.4518335932390965,0.5521759475900795,0.6186723464678736,0.6017593790426908,0.4346004586346798,0.3411170285402157,0.2786749218101742
0.5209044030146768,0.4537425742574256,0.4301592069690597,0.5293422184006878,0.5870556061987238,0.4547009406911816,0.5600374356574637,0.625417110401136,0.6071410090556274,0.4398923972481918,0.3456233783968319,0.2839726814323099
0.5249504165013884,0.4574257425742574,0.4327425653349354,0.5254729148753223,0.5875765073577288,0.4581216358971779,0.5722040243331773,0.6357827476038338,0.6145407503234152,0.4466837184688657,0.351495288816059,0.2934831173804812
0.5253470844902817,0.456039603960396,0.4303995193751878,0.5262790197764402,0.5904414637322568,0.4562603752703858,0.5722040243331773,0.6354987575434861,0.6144890038809832,0.4466837184688657,0.3526332559515681,0.2933554605221165
0.5188417294724317,0.4518019801980197,0.428837488735356,0.5313306104901118,0.5867951556192212,0.4528899844056542,0.5571361722040243,0.622719204827831,0.6063648124191461,0.4406420885517727,0.3460785652510355,0.2835258824280334
0.5159063863546213,0.4516831683168316,0.4309402222889756,0.5324054170249355,0.5821070451881756,0.4537451582071533,0.5460926532522228,0.6147674831380902,0.6016558861578266,0.4358352443111659,0.3416632527652601,0.2783557796642624
0.5251090836969458,0.4571485148514851,0.4322619405226794,0.5255803955288049,0.5882276338064852,0.4577192011670606,0.5505849321478707,0.6209442669506567,0.6064165588615782,0.4398482977597459,0.3459420091947744,0.2848024510116805
0.5347877826259422,0.462059405940594,0.4323220186242115,0.5189703353396388,0.5960411511915613,0.4608883746667337,0.5601310248011231,0.6293929712460063,0.6137128072445018,0.4461545246075145,0.3525422185807274,0.2929724899470223
0.5321697738992465,0.4613069306930692,0.4331030339441273,0.5203675838349098,0.5930459695272822,0.4607374616429397,0.5594759007955077,0.6283280085197018,0.6130401034928848,0.4459340271652848,0.3521780690973644,0.2941852301014871
0.5247124157080525,0.4568712871287128,0.4320817062180835,0.5259565778159931,0.5880974085167339,0.4574676794607375,0.5444080486663546,0.6159034433794818,0.6039844760672703,0.4387017110601516,0.3456233783968319,0.28505776472841
0.5221737405791353,0.457069306930693,0.4343045959747672,0.5266552020636286,0.5836697486651907,0.4585743749685597,0.5328965839962564,0.6073127440539581,0.5991720569210865,0.4351296524960309,0.3419818835632026,0.2800153188230037
0.529234430781436,0.4615049504950494,0.435626314208471,0.5212274290627686,0.5879671832269827,0.4618944614920267,0.5411324286382779,0.6146964856230032,0.6055368693402329,0.4405538895748808,0.3479903500386908,0.2872279313206102
0.5386751289170965,0.4663366336633663,0.4358666266145989,0.5147785898538264,0.5955202500325563,0.4651139393329644,0.5510528778661674,0.6253461128860489,0.6130918499353168,0.4480508026106896,0.3555009331330511,0.2968660241271462
0.5419278064260216,0.4668910891089109,0.4342445178732352,0.5132738607050731,0.5999479098840995,0.4647618089441119,0.5491810949929808,0.6249201277955272,0.6134023285899094,0.4488445934027165,0.3560926760435159,0.2985893917150699
0.5373264577548592,0.4633663366336633,0.4323820967257434,0.5172506448839209,0.5981247558275817,0.4617435484682328,0.5372016846045858,0.6135605253816117,0.6055368693402329,0.4426706650202857,0.3500386908826072,0.2916959213633752
0.5358191193970647,0.4629702970297029,0.4329227996395314,0.5180030094582975,0.596301601771064,0.4617435484682328,0.5268132896583996,0.6071707490237842,0.6010866752910736,0.4398041982712999,0.3464882334198188,0.287547073466522
0.5439904799682667,0.4664554455445544,0.4320216281165515,0.5128976784178848,0.6039848938663889,0.4635545047537602,0.531679925128685,0.6120695775647852,0.6067787839586029,0.4445669430234609,0.3521325504119441,0.294695857534946
0.5527171757239191,0.4703366336633663,0.4313006908981676,0.5073086844368014,0.6119286365412163,0.4657175914281402,0.5412260177819372,0.6217962371317004,0.6151617076326001,0.4532986417357558,0.3610542127543357,0.3056743473543116
0.5529551765172552,0.4696237623762376,0.4300390507659958,0.5077386070507308,0.6134913400182316,0.4647115046028472,0.5395414131960692,0.622790202342918,0.6159896507115135,0.455150820250485,0.3619190677773226,0.3082913129507882
0.5472431574771917,0.4656237623762376,0.4283568639231,0.512360275150473,0.6106263836437036,0.4614920267619095,0.5238184370613008,0.6117145899893504,0.6082794307891332,0.4491973893102839,0.3570030497519231,0.3020361268909172
0.5445458151527173,0.4649504950495049,0.4293181135476119,0.5137037833190026,0.6073707513999218,0.4614920267619095,0.5103416003743565,0.6041888533901314,0.6040879689521345,0.4456253307461633,0.3537712230870772,0.2971851662730579
0.5556525188417295,0.4705742574257425,0.4294382697506759,0.5061263972484953,0.6163562963927594,0.4650636349916997,0.515769770706598,0.6107206247781328,0.6102457956015523,0.452504850943729,0.3602803951021894,0.3045892640582115
0.5639825466084888,0.4750495049504949,0.4298588164613998,0.5003224419604471,0.6227373355905717,0.4680818954675789,0.5255966307908282,0.6215832445864395,0.618783958602846,0.461192450167578,0.3685647958486959,0.3161422097402183
0.561602538675129,0.4725544554455445,0.4279963953139081,0.5027944969905417,0.6228675608803229,0.4657678957694048,0.5201684604585868,0.6217252396166135,0.619353169469599,0.4626036337978478,0.3712503982884974,0.3190144890534244
0.551368504561682,0.4659405940594059,0.4255932712526284,0.5107480653482372,0.6170074228415157,0.4605362442778811,0.5031352363125877,0.6093006744763932,0.6127296248382923,0.4573557946727817,0.3662888615776776,0.3133975872853768
0.5517651725505752,0.4654257425742573,0.4246320216281166,0.510963026655202,0.6184399010287798,0.4597816791589113,0.4915301824988301,0.6035498757543486,0.6105045278137127,0.4566943023460927,0.3650143383859073,0.3114827344099061
0.5629512098373662,0.4714851485148514,0.4252928807449684,0.5030631986242476,0.6269045448626123,0.4639569394838774,0.4941506785212915,0.61242456514022,0.6184217335058214,0.4663961898041981,0.3738449633574582,0.3223973958000893
0.5771519238397462,0.4771881188118811,0.4231300690898167,0.4943572656921753,0.6408386508659982,0.4666230695709039,0.500982686008423,0.625133120340788,0.6293402328589909,0.4774210619156817,0.3855887841959124,0.3363758217910257
0.5788972629908767,0.4755247524752475,0.4194052267948333,0.4948946689595872,0.6463081130355515,0.4640575481664067,0.4933083762283575,0.6257011004614839,0.6329624838292367,0.4813900158758157,0.3897309845691656,0.3414182676964319
0.572550575168584,0.4704158415841584,0.4164613998197656,0.5005374032674118,0.6443547336892823,0.4595804617938528,0.4726251754796443,0.617678381256656,0.628771021992238,0.4799347327570999,0.3890482042878601,0.3400140422544201
0.5762792542641809,0.4719603960396039,0.4159206969059777,0.4982265692175408,0.6478708165125666,0.4603350269128225,0.4598034627983153,0.6159034433794818,0.6295472186287192,0.4826689010407479,0.3930083299194319,0.3425671794217144
0.5938119793732647,0.4793267326732672,0.413817963352358,0.4872635425623387,0.6645396536007292,0.4641078525076714,0.4606457650912493,0.6274760383386582,0.6404657179818887,0.4940024695713529,0.4045245573307842,0.357311546562839
0.6065846886156289,0.485108910891089,0.4129167918293782,0.4790412725709371,0.675999479098841,0.4674279390311384,0.4679457182966775,0.6438764643237487,0.6567658473479948,0.5083789028047274,0.4195912422049251,0.3762685900299993
0.6089646965489885,0.4851881188118811,0.4112346049864824,0.4781814273430782,0.679906237791379,0.4667236782534332,0.462517547964436,0.6484913028044018,0.6635963777490297,0.5162286117481036,0.4273294187263871,0.3855875406906235
0.6084886949623166,0.4834059405940594,0.4088915590267348,0.4795249355116079,0.6819898424273994,0.4646612002615826,0.4424894712213383,0.6434504792332268,0.6632858990944371,0.5181689892397248,0.4293322408848832,0.3873109082785472
0.6161047203490679,0.4886732673267326,0.4111745268849504,0.4733985382631127,0.6857663758301862,0.4689370692690779,0.431258773982218,0.6447994320198793,0.6676843467011642,0.5238137237608044,0.4369338613500842,0.3959277462181655
0.6353034510115034,0.4990891089108911,0.4123760889155903,0.4598022355975924,0.7002213829925771,0.4760802857286583,0.4354702854468881,0.6598509052183174,0.6828460543337644,0.5377932615981654,0.4508625790887159,0.4141188485351375
0.651011503371678,0.5082772277227723,0.414418744367678,0.4483018056749784,0.7108998567521811,0.4827204587755923,0.4434253626579316,0.6767483138090167,0.698835705045278,0.5524783912506614,0.465337521052392,0.4335865194357566
0.6533915113050378,0.5108514851485148,0.4165214779212977,0.4457222699914015,0.7105091808829275,0.4852859801800895,0.4386523163313055,0.6829960951366703,0.7056144890038809,0.5590492150291055,0.47257499203423,0.4411821025084572
0.6483934946449822,0.5099801980198019,0.4190447581856413,0.4480331040412726,0.7037374658158614,0.4857387192514714,0.4200280767430978,0.6780972665956692,0.7033893919793013,0.5586523196330921,0.47257499203423,0.4402885044999042
0.6525188417294725,0.5156831683168316,0.4245118654250526,0.442712811693895,0.701132960020836,0.4916746315207002,0.4108563406644829,0.6786652467163649,0.7049417852522638,0.560769095078497,0.4762164868678592,0.444884151401034
0.6713209044030148,0.5276831683168316,0.428477020126164,0.4282029234737747,0.7123323349394453,0.5009809346546606,0.417313991576977,0.6918707845225417,0.7161190168175937,0.5713970717939671,0.4868223405708043,0.4604582881215293
0.6829036096786991,0.5356039603960395,0.4317212376088915,0.4189595872742906,0.7183226982680037,0.5073192816540067,0.4259241927936359,0.7072062477813276,0.7286934023285899,0.583568530605045,0.4989758295780417,0.4789047041552307
0.6774295914319716,0.5353663366336634,0.435506158005407,0.4209479793637145,0.7097278291444198,0.5087781075506815,0.4212447356106691,0.7094071707490238,0.7320569210866752,0.5866554947962602,0.5019800628157859,0.4844577774940958
0.668940896469655,0.5345346534653466,0.4406728747371583,0.4243873602751504,0.6972262013282978,0.5103878464711504,0.4064576509124941,0.6995385161519347,0.7261578266494177,0.5814517551596401,0.4971095634758068,0.4769260228505776
0.668464894882983,0.5398019801980197,0.4490838089516371,0.4209479793637145,0.687589529886704,0.5172795412244077,0.4027140851661206,0.696201632942847,0.7249676584734799,0.5780119950608572,0.4949246665756293,0.4727771749537244
0.6774295914319716,0.5468118811881187,0.4529288074496845,0.4132093723129836,0.6908451621304857,0.5233663665174304,0.4116050538137575,0.7051473198438054,0.7314359637774902,0.5823778444170047,0.4998406846010287,0.4787132188676836
0.6838556128520429,0.5506930693069306,0.4538900570741964,0.4083727429062769,0.6951425966922776,0.5262337139695156,0.4223678053345812,0.7143769968051118,0.7385252263906855,0.5881107779149761,0.5057125950202558,0.4865002872279313
0.6749702499008331,0.5481980198019801,0.456893962150796,0.41304815133276,0.6844641229326734,0.525881583580663,0.4217126813289658,0.7106141285055023,0.7358861578266493,0.5847151173046392,0.5020255815012062,0.4817769834684368
0.6568028560095202,0.5445940594059405,0.4650645839591469,0.4217003439380911,0.6607631201979424,0.5269882790884852,0.4151614412728123,0.6996805111821085,0.7254851228978006,0.5724554595166695,0.4884610132459374,0.4647347928767472
0.643316144387148,0.5432475247524752,0.4732952838690297,0.427128116938951,0.6407084255762469,0.5296041048342471,0.4200280767430978,0.6908058217962371,0.7157567917205692,0.5603281001940377,0.4734853657426374,0.4490329992978872
0.6331614438714797,0.5442772277227722,0.4826073896064884,0.4299226139294927,0.6223466597213178,0.5341314955480658,0.4404305100608329,0.6906638267660632,0.7114618369987062,0.5529634856235667,0.4648368155127679,0.4392672496329864
0.6272114240380802,0.5442376237623762,0.4869930910183238,0.4319110060189166,0.6127099882797239,0.5359927561748579,0.4604585868039307,0.688533901313454,0.7046830530401034,0.5433056976539071,0.4552778915744913,0.4277143039509797
0.6073780245934154,0.5362376237623762,0.4898768398918594,0.444110060189166,0.5933064201067847,0.532069017556215,0.4657931679925128,0.6747603833865815,0.6884346701164294,0.5264596930675604,0.4380718284855933,0.4061402948873428
0.5858786195953988,0.5258217821782177,0.4903574647041153,0.4584049871023216,0.5752051048313582,0.5256803662156044,0.4637342068320074,0.6527511537096202,0.6663906856403622,0.505247839125066,0.4157676726296144,0.3790770409140231
0.5764379214597383,0.5204356435643565,0.4893361369780714,0.4652837489251934,0.5684333897642923,0.521857236279491,0.470285446888161,0.6374866879659212,0.6491073738680465,0.4890633268654082,0.4000182074741681,0.358907257292398
0.575803252677509,0.5203564356435643,0.4896365274857314,0.4655524505588994,0.5676520380257846,0.5219075406207556,0.4868507253158634,0.633013844515442,0.641914618369987,0.481919209737167,0.3921434748964449,0.351247845790515
0.5731059103530346,0.520118811881188,0.4913787924301592,0.4666272570937231,0.5634848287537438,0.5225111927159314,0.501263453439401,0.63024494142705,0.6353428201811124,0.4754365849356146,0.3857253402521735,0.3469075126061147
0.5614438714795716,0.5138613861386139,0.4907780114148392,0.4748495270851247,0.5546295090506576,0.5182856280497007,0.500701918577445,0.6195243166489173,0.623803363518758,0.4650291056623742,0.3753015612909098,0.3343333120571902
0.54970249900833,0.5057821782178217,0.4873535596275157,0.4843078245915735,0.5487693710118505,0.5116957593440314,0.4939635002339728,0.6034788782392616,0.6079689521345406,0.4513141647556888,0.3621011425190041,0.3183762047616008
0.548115827052757,0.5036039603960396,0.485250826073896,0.4862962166809974,0.5496809480401093,0.509432063987122,0.4943378568086101,0.5939652112176074,0.5983958602846053,0.4425824660433938,0.3546815967954845,0.3096955383928001
0.5550178500595003,0.5066138613861385,0.4845899669570441,0.4818895098882201,0.5560619872379216,0.5110418029075909,0.5045390734674777,0.5970891018814342,0.5997412677878395,0.443111659904745,0.3555009331330511,0.3116742196974532
0.5560491868306228,0.5078415841584157,0.4856713727846199,0.480707222699914,0.5558015366584189,0.5122994114392072,0.5115582592419279,0.6008519701810436,0.6000517464424321,0.4436849532545421,0.3554098957622104,0.3135252441437416
0.549940499801666,0.5038811881188119,0.4842895764493842,0.4854901117798796,0.5522854538351347,0.5091805422807988,0.5094057089377632,0.5936102236421725,0.5941526520051745,0.4392309049215029,0.3500842095680277,0.3075253718005999
0.5384371281237604,0.4965544554455445,0.4818864523881045,0.4943572656921753,0.5453835134783175,0.5035464560591578,0.4982686008423023,0.5815406460773873,0.5848382923673997,0.4312929970012347,0.343028813327871,0.298078764281611
0.532487108290361,0.4936633663366336,0.4820066085911684,0.4983340498710232,0.5404349524677692,0.5017858041148952,0.4953673373888629,0.5760738374156904,0.580077619663648,0.4280296348562356,0.3396149119213437,0.2933554605221165
0.5375644585481952,0.4963960396039603,0.4823670772003604,0.4947871883061049,0.544211485870556,0.5036470647416872,0.5030416471689284,0.5820376286829961,0.584424320827943,0.4313370964896806,0.3422549956757248,0.2985255632858875
0.5403411344704483,0.4981782178217821,0.4828477020126163,0.4925838349097163,0.5459044146373225,0.5050052819558327,0.5108095460926532,0.5877884274050408,0.5891332470892625,0.4338507673310989,0.3464427147343984,0.3043977787706644
0.5343911146370488,0.4956039603960395,0.4835085611294683,0.4963993981083404,0.5403047271780179,0.5036470647416872,0.5067852129153018,0.5835285764998225,0.5854075032341526,0.4301464103016404,0.3425736264736674,0.3003127593029935
0.5246330821102738,0.4901782178217821,0.4826073896064884,0.5033319002579535,0.5332725615314493,0.4998239348055737,0.4947122133832475,0.5736599219027334,0.5763518758085381,0.4233991885694125,0.3357003049751923,0.2906746664964575
0.5240777469258232,0.4894653465346534,0.4820066085911684,0.5040305245055889,0.5334027868212007,0.4990693696866038,0.4911558259241927,0.5703940362087326,0.5746959896507114,0.4215029105662373,0.3346078565251035,0.2871002744622454
0.533677112257041,0.4957623762376237,0.4842895764493842,0.4965068787618229,0.5388722489907539,0.5040494994718044,0.503228825456247,0.579481718139865,0.5811125485122898,0.4272799435526547,0.3407983977422731,0.295589455543499
0.5424038080126934,0.5004356435643564,0.4847702012616401,0.4903804815133276,0.5455137387680687,0.5072186729714774,0.5123069723912026,0.5877174298899539,0.5872703751617075,0.4327923796083965,0.3460785652510355,0.3035041807621114
0.5390717969059897,0.4978217821782177,0.4833283268248723,0.4932824591573517,0.5443417111603073,0.5049549776145681,0.5084698175011698,0.5855165069222578,0.58633893919793,0.4308079026283294,0.3445764486321635,0.3013340141699112
0.5318524395081318,0.4927920792079207,0.4811655151697206,0.499140154772141,0.5406954030472717,0.5008803259721314,0.4966775854000935,0.5763578274760384,0.5801811125485122,0.4262656553183982,0.3392052437525604,0.2936107742388459
0.5324077746925824,0.4916831683168316,0.4791228597176329,0.4996775580395529,0.5434301341320484,0.4992705870516625,0.4929340196537201,0.5745118920837771,0.578835705045278,0.4263538542952901,0.3387955755837771,0.2919512350801047
0.5425624752082507,0.4964752475247524,0.478642234905377,0.4930137575236457,0.5522854538351347,0.5021379345037477,0.502948058025269,0.5853745118920838,0.5870633893919792,0.4331451755159639,0.3453047475988893,0.3007595583072701
0.550654502181674,0.4998019801980197,0.4775608290778011,0.4880159071367153,0.5600989712202109,0.5037979777654811,0.5091249415067851,0.5933972310969117,0.5942043984476066,0.4383048156641382,0.3509035459055942,0.3079083423756941
0.5430384767949228,0.4961584158415841,0.4778011414839291,0.4930674978503869,0.5535877067326475,0.5015845867498365,0.5055685540477304,0.5921902733404331,0.5927554980595083,0.4383930146410301,0.3504028403659702,0.3073338865130529
0.536215787385958,0.4906930693069307,0.4746770802042655,0.4990864144453998,0.5513738768068759,0.4968056743296946,0.4945250350959288,0.5844515441959531,0.5874773609314359,0.4336302698888692,0.3462151213072966,0.3017169847450053
0.5417691392304642,0.4919603960396039,0.4723941123460499,0.4963456577815993,0.5584060424534445,0.4966547613059007,0.4911558259241927,0.5852325168619098,0.5882535575679171,0.4346004586346798,0.3467158268469206,0.3012063573115465
0.5525585085283619,0.4966732673267326,0.471432862721538,0.4895206362854686,0.5683031644745409,0.4992202827103979,0.501544220870379,0.5956691515796947,0.5954463130659766,0.4413476803669077,0.3537712230870772,0.3088019403842471
0.5570011900039668,0.4982178217821781,0.470351456893962,0.4869411006018916,0.5731215001953379,0.499773630464309,0.5079082826392138,0.602555910543131,0.6008279430789133,0.4463309225612982,0.3592789840229414,0.3140358715772005
0.5507338357794527,0.4936237623762375,0.4681886452388105,0.4921539122957867,0.5703867691105613,0.4959505005281955,0.5006083294337856,0.5988640397586085,0.597567917205692,0.4436849532545421,0.3565478628977195,0.3096955383928001
0.5386751289170965,0.4876831683168316,0.4682487233403424,0.500268701633706,0.5603594217997134,0.4922279792746113,0.4868507253158634,0.587149449769258,0.5890297542043984,0.4368936320338683,0.3493559106013018,0.3011425288823642
0.5360571201904007,0.4863366336633662,0.4681886452388105,0.5020958727429063,0.5582758171636932,0.4913225011318477,0.4810481984089845,0.5840255591054313,0.5875808538163001,0.4355706473804903,0.3475351631844872,0.2983979064275228
0.54319714399048,0.4897425742574257,0.4679483328326825,0.4973667239896818,0.5643964057820028,0.4933849791236984,0.4889096864763687,0.5929712460063897,0.5936351875808538,0.4405538895748808,0.3531339614911921,0.3042062934831173
0.5454184847282825,0.4909702970297029,0.4681285671372784,0.4958082545141875,0.5659591092590179,0.4942401529251974,0.4951801591015441,0.5995030173943912,0.5982406209573091,0.4448315399541364,0.357731348718649,0.310206165826259
0.5365331217770727,0.4860990099009901,0.4674677080204265,0.5020958727429063,0.5594478447714546,0.4908697620604658,0.489003275620028,0.59226127085552,0.5942043984476066,0.4414799788322455,0.3537257044016568,0.3058020042126763
0.5239984133280445,0.4784158415841584,0.4652448182637428,0.5115541702493551,0.551504102096627,0.4850847628150309,0.4756200280767431,0.5804756833510827,0.5853040103492885,0.4335420709119774,0.3458509718239337,0.2950788281100401
0.5260610868702896,0.4779405940594058,0.4630820066085911,0.5111779879621668,0.5556713113686678,0.4838271542834146,0.474777725783809,0.579481718139865,0.5834928848641655,0.4314693949550184,0.3438026309800173,0.2936107742388459
0.5380404601348672,0.4841584158415841,0.4633823971162511,0.5029019776440241,0.5650475322307592,0.487952110267116,0.4877866167524566,0.5900603478878238,0.5900129366106079,0.4376874228258952,0.350129728253448,0.3010787004531818
0.5442284807616026,0.4878811881188118,0.4643436467407629,0.498280309544282,0.5690845162130486,0.4907188490366718,0.4972391202620496,0.5978700745473908,0.5966882276843466,0.4420091726935967,0.3548636715371659,0.3073338865130529
0.5360571201904007,0.485069306930693,0.4663262240913187,0.5029557179707652,0.5603594217997134,0.4897127622113788,0.4920917173607861,0.594675186368477,0.5934282018111253,0.4386576115717057,0.3520415130411033,0.3035680091912938
0.529234430781436,0.4812673267326732,0.4656653649744668,0.5078460877042132,0.5554108607891652,0.4870466321243523,0.4816097332709405,0.5837415690450835,0.5852005174644243,0.4316016934203562,0.3443033365196413,0.2936107742388459
0.5319317731059104,0.4819801980198019,0.4646440372484229,0.5064488392089423,0.5586664930329469,0.4870969364656169,0.4801123069723911,0.5807596734114305,0.5832341526520051,0.4307638031398835,0.3426646638445081,0.2915682645050105
0.5396271320904403,0.4871287128712871,0.4666866927005106,0.5003224419604471,0.5628337023049875,0.4912218924493183,0.4900327562002807,0.5880724174653887,0.5876843467011642,0.4351296524960309,0.3465792707906595,0.2976957937065169
0.54319714399048,0.4897425742574257,0.4679483328326825,0.4973667239896818,0.5643964057820028,0.4933849791236984,0.4986429574169396,0.5945331913383031,0.5922380336351876,0.4383048156641382,0.350630433793072,0.3028658964702879
0.5378817929393098,0.4870099009900989,0.4677680985280865,0.5010210662080825,0.5602291965099622,0.4915740228381708,0.4930276087973794,0.5891373801916933,0.5883053040103493,0.4343799611924501,0.3471254950157039,0.2978234505648816
0.5299484331614439,0.4832079207920792,0.4680684890357465,0.5062876182287188,0.5533272561531448,0.4893103274812616,0.4819840898455779,0.5791977280795172,0.579404915912031,0.42776503792556,0.340161136146388,0.2888874704793515
0.5278064260214201,0.483049504950495,0.4694502853709822,0.5071474634565778,0.5500716239093633,0.4897630665526434,0.4811417875526438,0.5774937877174299,0.5777490297542043,0.426397953783736,0.3380672766170512,0.2869726176038807
0.5389131297104325,0.4892277227722771,0.4704115349954941,0.499140154772141,0.5582758171636932,0.4940892399014035,0.4928404305100608,0.5870074547390842,0.5848382923673997,0.4312488975127888,0.3429377759570303,0.2937384310972107
0.5492264974216582,0.4957227722772277,0.4723941123460499,0.4912940670679278,0.564526631071754,0.4990693696866038,0.4998596162845109,0.5955981540646078,0.5912031047865458,0.4365408361263009,0.3478082752970094,0.3004404161613582
0.5485918286394288,0.4958415841584158,0.4731150495644338,0.4914015477214101,0.5632243781742414,0.4994215000754564,0.4880673841834346,0.5917642882499112,0.5898576972833117,0.4342917622155582,0.3456233783968319,0.2978234505648816
0.5452598175327251,0.4982574257425742,0.4793030940222288,0.4908641444539983,0.55384815731215,0.5035464560591578,0.475058493214787,0.5866524671636493,0.5877878395860283,0.4321308872817074,0.3427557012153489,0.294504372247399
0.5462118207060691,0.5033267326732673,0.4862721537999399,0.4871023215821152,0.547076442245084,0.5096835856934453,0.4731867103416003,0.5878594249201278,0.5895472186287193,0.4335861704004232,0.3431653693841321,0.294695857534946
0.5593811979373265,0.5143762376237623,0.4930609792730549,0.4751719690455717,0.5504622997786169,0.519543236581317,0.4818905007019184,0.5962371317003904,0.5986028460543337,0.4402451931557593,0.3499931721971869,0.3029935533286525
0.564379214597382,0.5232079207920792,0.5027335536197056,0.467487102321582,0.5440812605808047,0.52920167010413,0.4934955545156761,0.6061767838125666,0.6091073738680465,0.4469483153995413,0.3565478628977195,0.3104614795429884
0.5588258627528759,0.5228910891089108,0.5064583959146891,0.4695829750644884,0.5354863914572209,0.5305598873182756,0.4919045390734674,0.612566560170394,0.6134023285899094,0.4488445934027165,0.3568209750102417,0.3099508521095296
0.5565251884172948,0.5224950495049504,0.507599879843797,0.4706040412725709,0.5323609845031905,0.5307611046833343,0.4693495554515676,0.6116435924742634,0.613816300129366,0.4480508026106896,0.3544995220538031,0.3068870875087764
0.5659658865529552,0.5285544554455446,0.5095824571943527,0.4633490971625107,0.537960671962495,0.5354897127622114,0.4375292466073935,0.6042598509052183,0.6148512289780077,0.4499911801023107,0.3571396058081842,0.3097593668219824
0.5788972629908767,0.5376633663366336,0.513547611895464,0.4527622527944969,0.5443417111603073,0.5428844509281151,0.4255498362189985,0.6002839900603479,0.619353169469599,0.4568266008114305,0.3643315581046019,0.3206740282121657
0.5802459341531139,0.5441584158415842,0.5223790928206669,0.4478718830610489,0.5357468420367235,0.5507319281654006,0.4189985961628451,0.5906283280085197,0.6146959896507115,0.456517904392309,0.3663798989485183,0.326801557413672
0.5748512495041651,0.545108910891089,0.527966356263142,0.4491079105760963,0.5253288188566219,0.5536495799587504,0.3970987365465605,0.5698970536031238,0.6009314359637774,0.4488004939142705,0.3595976148208839,0.3228441948043659
0.5634272114240382,0.5395247524752474,0.528146590567738,0.4567390369733448,0.5158223727047792,0.5501785804114895,0.3793167992512868,0.5485977990770322,0.5849417852522638,0.4368936320338683,0.3483089808366334,0.3104614795429884
0.5642205474018248,0.5409108910891088,0.5296485431060378,0.4555567497850386,0.514780570386769,0.551687710649429,0.3738886289190453,0.5370962016329429,0.575058214747736,0.4296613159287352,0.3428467385861896,0.3053552052083998
0.5730265767552559,0.549029702970297,0.5352958846500451,0.44701203783319,0.5158223727047792,0.5592333618391268,0.3863359850257369,0.5346112886048988,0.5710737386804657,0.4274122420179925,0.3424370704174063,0.3070785727963234
0.5727092423641412,0.547049504950495,0.5325322919795734,0.4484630266552021,0.5186873290793071,0.5568187534584235,0.3952269536733738,0.531558395456159,0.5648641655886157,0.4228258952196154,0.338659019527516,0.3039509797663879
0.564379214597382,0.5413465346534653,0.5301892460198258,0.4551805674978503,0.5142596692277639,0.5522410584033401,0.390828263921385,0.5232516861909833,0.5571539456662354,0.4169606632563062,0.3331057399062315,0.2973766515606051
0.564141213804046,0.5349306930693069,0.5206368278762391,0.4596410146173689,0.524417241828363,0.5441420594597314,0.3798783341132429,0.5153709620163294,0.5498576972833117,0.4123302169694831,0.3299649506122263,0.2938660879555754
0.5819119397064657,0.5333465346534653,0.5047161309702614,0.4546431642304385,0.5563224378174241,0.5364454952462397,0.3769770706598034,0.5178558750443735,0.5490815006468304,0.4128153113423883,0.3322864035686649,0.2995468181528052
0.597699325664419,0.537069306930693,0.4984680084109341,0.4467970765262252,0.5761166818596172,0.5361939735399165,0.3910154422087037,0.529144479943202,0.556895213454075,0.4194302346092784,0.340024580090127,0.3118657049850002
0.600238000793336,0.540039603960396,0.5009912886752778,0.4438950988822012,0.5754655554108606,0.5391619296745309,0.4045858680393074,0.5359602413915513,0.5610349288486416,0.4229581936849532,0.3443033365196413,0.3184400331907831
0.5833399444664816,0.5295841584158416,0.4980474617002103,0.4567390369733448,0.5647870816512567,0.5312641480959807,0.4081422554983621,0.5304224352147675,0.5545666235446312,0.4161227729758334,0.3370203468523828,0.3082913129507882
0.5560491868306228,0.5168712871287129,0.4993691799339141,0.4745808254514186,0.5409558536267742,0.5237688012475477,0.4190921853065044,0.5305644302449414,0.5515653298835704,0.4101693420356324,0.3285993900496153,0.2925895193719282
0.5345497818326062,0.5116435643564357,0.5077200360468609,0.4854363714531384,0.5141294439380127,0.5239197142713417,0.4404305100608329,0.5409300674476393,0.5565847347994825,0.4112718292467807,0.3265965678911193,0.2852492500159571
0.5298690995636653,0.5116039603960395,0.5112045659357164,0.487048581255374,0.5065763771324391,0.5253785401680164,0.4703790360318202,0.5539936102236421,0.5658990944372574,0.4168283647909683,0.3305111748372706,0.2883130146167103
0.529472431574772,0.5055841584158416,0.5023730850105137,0.4912940670679278,0.5158223727047792,0.5178328889783188,0.4899391670566214,0.5657791977280795,0.5745924967658472,0.4222085023813723,0.3336064454458555,0.2904831812089104
0.5224910749702499,0.4924356435643564,0.4877140282367077,0.5025795356835769,0.5259799453053782,0.5033955430353639,0.4892840430510061,0.5662761803336883,0.5721086675291073,0.4195625330746163,0.3301925440393281,0.2831429118529392
0.5154303847679493,0.4779009900990099,0.471012316010814,0.5147785898538264,0.5382211225419976,0.4871472408068816,0.4833879270004679,0.5611643592474262,0.5653298835705045,0.4125948139001587,0.3222267740907642,0.2701219122997382
0.5109877032923443,0.4720396039603959,0.4654851306698708,0.5203138435081686,0.5406954030472717,0.4811107198551234,0.4905007019185773,0.564430244941427,0.5663648124191462,0.4128153113423883,0.3206336201010515,0.2660368928320674
0.5174930583101944,0.4758019801980198,0.4662060678882547,0.515530954428203,0.5451230628988148,0.4838271542834146,0.5050070191857744,0.5762158324458644,0.573195342820181,0.4176221555829951,0.3258227502389731,0.2722920788919384
0.5182863942879811,0.4772673267326732,0.4678882547311505,0.5142949269131556,0.5439510352910535,0.4854368932038834,0.5128685072531586,0.5843805466808661,0.5791979301423027,0.4213265126124537,0.3306022122081114,0.2762494415012446
0.5079730265767554,0.471009900990099,0.4662060678882547,0.5220335339638865,0.53743977080349,0.4807585894662708,0.5119326158165652,0.5853745118920838,0.5798706338939198,0.4209296172164402,0.3273248668578451,0.2696751132954618
0.500357001190004,0.4612277227722772,0.457194352658456,0.5312231298366294,0.540825628337023,0.4707983298958699,0.5127749181094993,0.5944621938232162,0.5846313065976713,0.4212383136355618,0.3242295962492603,0.2608667900682964
0.5053550178500595,0.4565940594059405,0.4463202162811655,0.5326741186586414,0.5567131136866779,0.4632526787061723,0.5244735610669162,0.6151934682286119,0.597567917205692,0.429793614394073,0.3291456142746597,0.2594625646262845
0.5201110670368903,0.4659009900990098,0.4492640432562331,0.5213886500429922,0.5656986586795155,0.4703958951657528,0.5487131492746841,0.6523961661341853,0.6287192755498059,0.4523725524783912,0.3460785652510355,0.2731856769004914
0.5352637842126141,0.4889504950495049,0.4728146590567738,0.5005911435941531,0.5526761297043885,0.4948941093616378,0.5688348151614412,0.7023074192403266,0.683829236739974,0.4976186276239194,0.3866812326460012,0.312886959851918
0.5504958349861167,0.5144950495049504,0.4999699609492339,0.478127687016337,0.5356166167469723,0.5225111927159314,0.5630322882545624,0.7500887468938586,0.7520310478654593,0.562841771035456,0.4517729527971232,0.3838003446735175
0.5905593018643396,0.5523564356435643,0.5270051066386302,0.4388435081685297,0.5392629248600078,0.5578751446249811,0.518015910154422,0.7741569045083422,0.8209055627425613,0.6496736637855,0.5460876689881196,0.4891172528244079
0.6805236017453392,0.6217821782178217,0.564253529588465,0.3612424763542562,0.5727308243260841,0.617586397706122,0.4160037435657463,0.7351082712105076,0.8529366106080205,0.7591285941083082,0.6846465474077108,0.6519435756686028
0.7700119000396669,0.7125544554455445,0.6342445178732352,0.2693465176268271,0.5703867691105613,0.7045122994114392,0.3135236312587739,0.6509052183173588,0.8270633893919792,0.8332598341859233,0.8051345077154172,0.8124720750622326
0.7915113050376835,0.7737029702970296,0.7106037849203966,0.2206040412725709,0.5052741242349263,0.7752905075708033,0.2262985493682732,0.5140930067447639,0.6909184993531694,0.7736373258070206,0.7920251263143521,0.8455352013786941
0.7440698135660453,0.7523564356435644,0.714208471012316,0.2511285468615649,0.4624300039067587,0.7632677700085517,0.1815629386991109,0.3751508697195598,0.4634928848641655,0.5600194037749161,0.6073558195639309,0.6982191868258123
0.6103927013090044,0.7186534653465345,0.764313607689997,0.3192712811693895,0.2983461388201588,0.7628150309371698,0.1291530182498829,0.1513667021654242,0.1746959896507115,0.2548068442406067,0.3229095543720697,0.4558626412203995
0.4648948829829433,0.6910099009900988,0.8325022529288074,0.3873065348237317,0.1049615835395233,0.7738316816741285,0.1864295741693963,0.0548100816471423,0.0279948253557567,0.0511554065972834,0.095270608584824,0.2295270313397587
0.4026180087266958,0.6042376237623762,0.7480925202763592,0.4673258813413585,0.1453314233624169,0.6833844760802857,0.3974730931211979,0.2298899538516151,0.1252263906856403,0.0723672605397777,0.0571259502025581,0.1192315057126444
0.3906386354621182,0.5202772277227722,0.6298588164613999,0.5283211521926053,0.2637062117463211,0.5805624025353389,0.5809078146934955,0.4644657436989705,0.2903492884864165,0.1806756041629916,0.1234011561746096,0.1111252952064849
0.3943673145577152,0.4824158415841583,0.5695404025232802,0.5527730008598453,0.3320744888657377,0.5312641480959807,0.6171268132896583,0.5510117145899894,0.380646830530401,0.2534838595872287,0.1778870226227866,0.1293802259526393
0.418167393891313,0.4847920792079208,0.5551216581556023,0.5430460017196904,0.3673655423883318,0.5267367573821621,0.5500233972859148,0.5355342563010295,0.4298576972833117,0.2999647204092432,0.2195366197824206,0.1646135188613008
0.4601348671162237,0.4902574257425742,0.5316311204565936,0.5251504729148753,0.4271389503841645,0.520398410382816,0.474496958352831,0.53177138800142,0.481862871927555,0.3448139001587581,0.2616869224816787,0.2091019340014042
0.4872669575565252,0.4922376237623762,0.51402823670772,0.5146173688736028,0.4685505925250683,0.5142612807485285,0.46055217594759,0.5383031593894214,0.5190685640362225,0.3739636620215205,0.2882698347671719,0.2385906682836535
0.4989289964299881,0.4873663366336633,0.4978672273956142,0.5139724849527085,0.4956374527933324,0.5044016298606571,0.4830135704258306,0.5591764288249912,0.5463389391979301,0.3932351384723936,0.3036551504392553,0.2539094912874194
0.4978183260610869,0.476079207920792,0.4815860618804445,0.5219797936371453,0.512306289881495,0.4904170229890839,0.4973327094057089,0.5732339368122116,0.5605692108667528,0.4019668371846886,0.3100277663981064,0.2555690304461607
0.4985323284410948,0.4656633663366336,0.4652448182637428,0.528804815133276,0.530668055736424,0.4769857638714221,0.503790360318203,0.5806176783812567,0.5681241914618369,0.4062885870523901,0.3119850698711821,0.2530797217080487
0.5092423641412138,0.4662574257425741,0.4580354460799039,0.5248280309544282,0.5472066675348352,0.4743196337843955,0.513523631258774,0.5885694000709976,0.573816300129366,0.4115364261774563,0.3149437844235058,0.2539733197166017
0.5182863942879811,0.4707722772277227,0.4580354460799039,0.518701633705933,0.5546295090506576,0.4771869812364807,0.5246607393542349,0.5990770323038694,0.5825614489003881,0.4181072499559005,0.3218626246074013,0.2616327312184847
0.5225704085680286,0.4727524752475247,0.4578552117753079,0.51585339638865,0.5584060424534445,0.4783439810855677,0.5344875994384651,0.6059637912673057,0.5889780077619663,0.4228258952196154,0.32668760526196,0.2692921427203676
0.5179690598968664,0.4689900990099009,0.4556323220186242,0.5199914015477215,0.5569735642661804,0.4750741989033654,0.5299017313991576,0.6007809726659568,0.5851487710219923,0.4191656376786029,0.3230461104283308,0.2637390693815025
0.5128123760412535,0.4652277227722772,0.4537699008711324,0.5242906276870164,0.5548899596301601,0.4718547210624276,0.519981282171268,0.5926872559460419,0.5803880983182406,0.4143146939495501,0.318585279257135,0.2576115401799961
0.5237604125347085,0.4693861386138613,0.4517873235205767,0.5177880481513327,0.5659591092590179,0.4736656773479551,0.5255966307908282,0.5955271565495207,0.5834928848641655,0.4176221555829951,0.3211343256406754,0.2605476479223846
0.5339151130503769,0.476,0.4541904475818564,0.509834479793637,0.5716890220080739,0.4788973288394789,0.5378568086102011,0.6071707490237842,0.5927554980595083,0.4244575762921149,0.3283717966225135,0.2697389417246441
0.5378024593415313,0.480079207920792,0.4573745869630519,0.5057502149613069,0.5714285714285714,0.4828210674581215,0.5424426766495086,0.6107916222932197,0.5964294954721863,0.4287352266713706,0.3326505530520278,0.2736963043339503
0.5355017850059501,0.4787326732673267,0.457074196455392,0.507469905417025,0.5698658679515561,0.4818149806328285,0.5359850257370145,0.6044018459353923,0.591927554980595,0.4252513670841417,0.3290090582183986,0.2691644858620028
0.5277270924236415,0.4745742574257425,0.4566536497446681,0.5128976784178848,0.564005729912749,0.4790482418632728,0.5224145999064108,0.5938942137025205,0.5846830530401035,0.4181072499559005,0.321953661978242,0.2596540499138315
0.5297897659658867,0.4773069306930693,0.4592370081105437,0.5103181427343078,0.5628337023049875,0.4818652849740932,0.5236312587739822,0.5935392261270855,0.5852522639068564,0.4195625330746163,0.3233647412262733,0.260802961639114
0.537405791352638,0.4819405940594058,0.4604986482427155,0.504621668099742,0.5677822633155358,0.4852859801800895,0.5343940102948058,0.602555910543131,0.5928072445019404,0.4260892573646145,0.3299649506122263,0.2694197995787323
0.5435144783815946,0.4853069306930692,0.4609792730549715,0.500268701633706,0.572209923167079,0.4876502842195281,0.5382311651848385,0.607525736599219,0.5958602846054333,0.4295731169518433,0.3337885201875369,0.2731218484713091
0.5371677905593019,0.4830891089108911,0.4624211474917392,0.5039230438521066,0.565438208100013,0.4868454147592936,0.5291530182498829,0.5997160099396521,0.5909961190168176,0.4255159640148174,0.3297373571851244,0.2685900299993617
0.5289170963903214,0.4786930693069307,0.4620006007810153,0.5096732588134135,0.5590571689022008,0.4838774586246792,0.5155825924192794,0.5877884274050408,0.5833376455368693,0.4199153289821837,0.3232737038554326,0.2608667900682964
0.5313764379214598,0.4804752475247524,0.4627816161009312,0.5076848667239897,0.5603594217997134,0.4853362845213542,0.515769770706598,0.5881434149804756,0.5833893919793013,0.4200917269359675,0.3230005917429104,0.2614412459309376
0.5428798095993654,0.4874851485148515,0.4647641934514869,0.4990326741186586,0.5675218127360333,0.4906182403541426,0.5247543284978942,0.5973020944266951,0.5908926261319534,0.4268389486681954,0.3297373571851244,0.2698027701538265
0.5418484728282428,0.4888316831683167,0.4675878642234905,0.4984415305245055,0.5636150540434952,0.4926304140047285,0.5270940570893776,0.5990770323038694,0.5932729624838291,0.4292203210442757,0.3322408848832445,0.2730580200421267
0.5323284410948037,0.4836435643564356,0.4669270051066386,0.5051590713671539,0.5565828883969267,0.4890588057749383,0.5159569489939166,0.5890663826766064,0.5873221216041397,0.4248985711765743,0.3290090582183986,0.2683347162826322
0.5213804046013487,0.4772277227722772,0.4654851306698708,0.5132201203783319,0.5491600468811043,0.4843805020373258,0.5031352363125877,0.5790557330493432,0.5796119016817592,0.4188128417710353,0.323319222540853,0.259909363630561
0.525505751685839,0.4779405940594058,0.4634424752177831,0.5113392089423904,0.5547597343404089,0.4840283716484733,0.502667290594291,0.5793397231096912,0.5792496765847347,0.4191656376786029,0.3230461104283308,0.2600370204889257
0.536215787385958,0.4836831683168316,0.464043256233103,0.5038155631986242,0.5629639275947388,0.4879018059258513,0.5096864763687412,0.5880724174653887,0.5868046571798188,0.4249867701534662,0.3295097637580226,0.2680794025659028
0.5383577945259819,0.486019801980198,0.4659657554821267,0.5015047291487532,0.562573251725485,0.4902158056240253,0.5102480112306972,0.592403265885694,0.5903751617076325,0.4280737343446815,0.3334698893895944,0.2732495053296738
0.5312177707259025,0.4835247524752474,0.4675878642234905,0.5056427343078247,0.5548899596301601,0.489260023139997,0.4992980814225549,0.5835995740149095,0.5842173350582147,0.4246780737343446,0.3294187263871819,0.2703133975872854
0.5278064260214201,0.4805940594059406,0.4657254430759988,0.5087596732588134,0.5542388331814038,0.4866441973942351,0.4868507253158634,0.5740859069932552,0.5784734799482535,0.4200917269359675,0.324821339159725,0.2645688389608731
0.5335184450614836,0.4812277227722772,0.4623610693902072,0.5063950988822012,0.562573251725485,0.485638110568942,0.4888160973327093,0.5751508697195599,0.5803363518758085,0.4220762039160345,0.3275069415995266,0.2683347162826322
0.5462118207060691,0.4862178217821781,0.4603784920396516,0.4987639724849527,0.575074879541607,0.487952110267116,0.5000467945718297,0.5863684771033013,0.5894954721862871,0.4298818133709648,0.3356092676043515,0.2803982893980978
0.5501785005950021,0.4882772277227722,0.4604385701411835,0.4960232158211521,0.5783305117853886,0.4893103274812616,0.5034160037435657,0.5914093006744764,0.5952393272962483,0.434424060680896,0.3403887295734899,0.2860151911661454
0.5438318127727093,0.4857821782178217,0.4613998197656954,0.4998387790197764,0.5720796978773277,0.48810302329091,0.4910622367805334,0.5840965566205183,0.5897542043984475,0.4309402010936672,0.3361099731439755,0.2809727452607391
0.5438318127727093,0.4844356435643564,0.4594172424151397,0.5007523645743767,0.574163302513348,0.4864429800291764,0.4768366869443144,0.5744408945686902,0.5840103492884863,0.4264861527606279,0.3309208430060539,0.2746537307716857
0.5489884966283222,0.4885544554455445,0.4617602883748873,0.4962381771281169,0.5758562312801145,0.4900145882589667,0.474777725783809,0.577138800141995,0.5865976714100904,0.4293526195096137,0.3342437070417406,0.2792493776728154
0.5615232050773503,0.4959603960396039,0.4635025533193151,0.4869411006018916,0.5841906498241958,0.495447457115549,0.4783341132428637,0.5840965566205183,0.5938421733505821,0.4370700299876521,0.3429377759570303,0.2898448969170868
0.5684252280840937,0.4986930693069306,0.4624211474917392,0.4827493551160791,0.5910925901810131,0.49675536998843,0.4773046326626111,0.5875754348597799,0.5985510996119016,0.4421855706473804,0.3496745413992443,0.2987170485734346
0.5637445458151528,0.4948514851485148,0.4601381796335236,0.4869411006018916,0.5896601119937491,0.4933849791236984,0.4671034160037435,0.5835285764998225,0.5977749029754204,0.4414358793437996,0.3491283171742,0.2971851662730579
0.5572391907973028,0.4913663366336633,0.4597777110243316,0.4915090283748925,0.5847115509832008,0.4910206750842597,0.4536265793167992,0.5766418175363862,0.5942561448900388,0.4396718998059622,0.3468068642177613,0.2924618625135635
0.5669972233240778,0.4952871287128712,0.4582757584860318,0.4855438521066208,0.5943482224247948,0.4928316313697872,0.4510060832943378,0.5807596734114305,0.597567917205692,0.444478744046569,0.3508125085347535,0.296291568264505
0.5750892502975011,0.5008316831683167,0.4606188044457795,0.4790412725709371,0.5985154316968354,0.4973590220836058,0.456621431913898,0.5928292509762157,0.6079172056921086,0.454489327923796,0.3604169511584505,0.306823259079594
0.5762792542641809,0.5033267326732673,0.4635025533193151,0.4769453998280309,0.5964318270608152,0.5001760651944263,0.4555919513336452,0.5978700745473908,0.6151099611901681,0.4611042511906861,0.3681551276799126,0.3143550137231122
0.5769932566441889,0.5019009900990099,0.4607389606488435,0.4776440240756664,0.5999479098840995,0.4980632828613109,0.4442676649508656,0.5944621938232162,0.6151617076326001,0.4626918327747397,0.3705220993217716,0.3181847194740537
0.5766759222530742,0.4975841584158416,0.4544908380895163,0.480707222699914,0.606459174371663,0.4927310226872579,0.4306036499766026,0.5895633652822152,0.6141785252263906,0.4641030164050096,0.3721607719969047,0.3209931703580774
0.5880999603332011,0.4991683168316831,0.4482427155301892,0.4757631126397248,0.6226071103008204,0.4911212837667891,0.4272344408048666,0.5968761093361732,0.6212160413971539,0.472570118186629,0.3818107333060221,0.3305036063062487
0.6038080126933757,0.5074059405940594,0.4488434965455091,0.464853826311264,0.6348482875374397,0.4966044569646359,0.4303228825456247,0.6112886048988285,0.634980595084088,0.4863291585817604,0.3963311939551185,0.3486308801940384
0.6126933756445856,0.511049504950495,0.4477020126164013,0.4593723129836629,0.6433129313712723,0.4984657175914281,0.4251754796443612,0.6208022719204828,0.6461578266494178,0.4970894337625682,0.4082570895352542,0.3639497031978043
0.6126933756445856,0.5101386138613861,0.4462601381796335,0.459963456577816,0.6450058601380388,0.4972584134010764,0.4107627515208235,0.6205892793752219,0.6499353169469598,0.5011465866995942,0.413218626246074,0.3700772323993106
0.6138040460134868,0.5094257425742573,0.4442775608290778,0.4600709372312983,0.648001041802318,0.4960008048694602,0.3967243799719232,0.6199503017394391,0.6509702457956015,0.5045863467983771,0.4159497473712958,0.3746728793004404
0.6370487901626339,0.5192079207920792,0.4415740462601382,0.4456147893379192,0.6700091157702825,0.50108154333719,0.3962564342536265,0.6320908768193113,0.6615265200517464,0.5161845122596578,0.4283308298056352,0.3888427905789238
0.6529948433161445,0.530970297029703,0.4474016221087414,0.4321797076526226,0.6767808308373486,0.5109411942250616,0.4006551240056153,0.6487752928647498,0.6762225097024579,0.5299876521432351,0.4435795894214575,0.4063317801748899
0.6602142007140024,0.5381386138613861,0.4526884950435566,0.4249247635425623,0.6769110561270998,0.5177322802957894,0.3999064108563406,0.6575079872204472,0.6866235446313065,0.5389839477862056,0.454003368382721,0.4196719218740026
0.6582308607695359,0.5363564356435643,0.4515470111144488,0.4267519346517627,0.6765203802578461,0.5161225413753207,0.3859616284510996,0.6538871139510116,0.6883829236739973,0.5412330216969482,0.4564158587100004,0.4245228824918619
0.6638635462118209,0.5368316831683168,0.4480024031240613,0.4245485812553741,0.6851152493814299,0.5149655415262336,0.3715489003275619,0.6497692580759673,0.6868305304010348,0.5414976186276238,0.4570076016204651,0.4252249952128678
0.672907576358588,0.5433663366336633,0.4510663863021928,0.417078675838349,0.6891522333637192,0.520398410382816,0.3705194197473092,0.6590699325523606,0.6945924967658472,0.5478479449638384,0.4641085165460421,0.4319908087061977
0.6783815946053154,0.5533465346534653,0.4620006007810153,0.408426483233018,0.6818596171376481,0.5312641480959807,0.3764155357978474,0.6729854455094071,0.7054592496765846,0.5571088375374844,0.4743047020802038,0.4450756366885811
0.6899642998809997,0.5625346534653465,0.4672273956142986,0.3982695614789338,0.6856361505404349,0.5393128426983248,0.3745437529246607,0.6796592119275825,0.7128589909443726,0.5635914623390368,0.480677318039055,0.4546499010659347
0.6762395874652917,0.5642772277227722,0.4802643436467407,0.4017089423903697,0.6602422190389373,0.5459027114039942,0.3666822648572765,0.675896343627973,0.71130659767141,0.5612982889398482,0.4776730848013109,0.4495436267313461
0.6650535501785007,0.5648316831683168,0.4895163712826674,0.4051483233018056,0.6409688761557494,0.5501282760702249,0.3619092185306504,0.6705715299964501,0.706287192755498,0.5545951666960663,0.4707997633028358,0.4409267887917277
0.6671955573185245,0.5693069306930693,0.4947431661159507,0.4013865004299226,0.6370621174632113,0.5551587101966899,0.3794103883949461,0.6747603833865815,0.7075808538163001,0.5533162815311342,0.4677500113796713,0.4399055339248101
0.6656882189607299,0.5739009900990099,0.5028537098227696,0.3987532244196045,0.6271649954421149,0.5614467528547714,0.4053345811885821,0.6852680156194534,0.71130659767141,0.5526988886928911,0.4656106331649141,0.4395863917788983
0.6538675128917096,0.5722376237623762,0.5092820666866927,0.4039122957867583,0.6104961583539522,0.5630564917752402,0.4214319138979878,0.6828541001064963,0.7065976714100906,0.5426883048156641,0.4545040739223451,0.4279057892385268
0.6264974216580722,0.5611485148514851,0.5131871432862721,0.4206792777300086,0.5836697486651907,0.5576739272599225,0.4241459990641085,0.6643947461838835,0.6891073738680464,0.524695713529723,0.4355227821020529,0.4025020744239483
0.6089646965489885,0.5529504950495049,0.51402823670772,0.4321797076526226,0.5684333897642923,0.5527944061572514,0.4318203088441741,0.6496272630457934,0.6724450194049159,0.5078497089433761,0.4167235650234421,0.3778643007595583
0.6022213407378025,0.5486336633663366,0.5125863622709522,0.4374462596732588,0.5643964057820028,0.5494743196337843,0.448291998128217,0.6438764643237487,0.6610090556274256,0.4949285588287175,0.4035231462515362,0.3628007914725218
0.5976199920666403,0.5487524752475247,0.5162511264644037,0.4388972484952709,0.5567131136866779,0.5510840585542531,0.4656995788488535,0.6416045438409655,0.6529883570504528,0.487211148350679,0.3969684555510037,0.3548222378247271
0.5874652915509719,0.5428910891089108,0.5149894863322318,0.4463134135855546,0.5496809480401093,0.5468584938880225,0.4700982686008422,0.6286829960951367,0.639379042690815,0.4748632915858176,0.384541854431244,0.3428863215676262
0.572550575168584,0.5340198019801979,0.5128867527786122,0.457383920894239,0.5397838260190128,0.5403189295236179,0.4664482919981282,0.6129925452609158,0.6229236739974127,0.4600458634679836,0.3685647958486959,0.3256526456883896
0.5595398651328839,0.5257029702970296,0.5101832382096726,0.467433361994841,0.5319703086339367,0.5339302781830072,0.4619560131024801,0.597586084487043,0.6073997412677878,0.4465073205150819,0.3544084846829624,0.3083551413799706
0.5593811979373265,0.5248712871287128,0.5089816761790328,0.4680782459157351,0.533142336241698,0.5328738870164494,0.4671034160037435,0.5943201987930422,0.6002587322121603,0.4392309049215029,0.3480358687241112,0.3002489308738111
0.5573185243950814,0.5296633663366337,0.5178131571042355,0.4654987102321582,0.5219429613230888,0.5396146687459128,0.4782405240992045,0.594817181398651,0.5979818887451487,0.4359675427765037,0.344394373890482,0.2943767153890342
0.5540658468861563,0.5312871287128712,0.5227395614298589,0.4654987102321582,0.5139992186482614,0.5427335379043211,0.4802994852597098,0.5917642882499112,0.5954463130659766,0.4325277826777208,0.3424370704174063,0.2917597497925576
0.5447838159460532,0.5252673267326733,0.5206368278762391,0.4727536543422184,0.5085297564787081,0.5380049298254439,0.4732802994852597,0.5799077032303869,0.5861836998706338,0.4250749691303581,0.3351085620647275,0.2837173677155805
0.5435144783815946,0.5188514851485148,0.5119255031541002,0.4774828030954429,0.5169944003125406,0.5303083656119523,0.4698175011698642,0.5709620163294284,0.5770245795601552,0.4177544540483329,0.3266420865765396,0.2761856130720623
0.55089250297501,0.518059405940594,0.5050765995794533,0.47554815133276,0.5304076051569215,0.5268876704059561,0.4764623303696771,0.5723109691160809,0.5769728331177231,0.4172693596754277,0.326186899722336,0.27720686793898
0.5550178500595003,0.5243168316831682,0.5114448783418444,0.4699054170249354,0.5268915223336371,0.5335781477941546,0.4903135236312587,0.5831025914093007,0.5835963777490297,0.4228699947080613,0.3323319222540853,0.2851854215867747
0.5523998413328045,0.5275247524752475,0.5182937819164913,0.4686156491831469,0.5173850761817944,0.5384576688968258,0.4959288722508189,0.5845935392261271,0.5856144890038809,0.4233991885694125,0.3336974828166962,0.285951362736963
0.549940499801666,0.5253069306930692,0.5167918293781917,0.4709802235597592,0.5169944003125406,0.5363951909049751,0.486195601310248,0.5767128150514732,0.5797153945666235,0.4181072499559005,0.3288269834767172,0.2786749218101742
0.5424831416104722,0.5205148514851485,0.5151697206368279,0.4767304385210662,0.5126969657507487,0.5327229739926556,0.4760879737950397,0.5689030883919062,0.573764553686934,0.4139618980419826,0.3239109654513177,0.2728027063253973
0.5494644982149941,0.5236831683168317,0.5146290177230399,0.4722162510748065,0.5189477796588097,0.5344836259369183,0.4803930744033691,0.5711750088746894,0.5761966364812419,0.4162550714411712,0.326186899722336,0.2756749856386034
0.5570805236017454,0.5276435643564356,0.5149294082307,0.4669496990541702,0.5249381429873681,0.5371497560239449,0.4956481048198408,0.5826766063187787,0.5841655886157826,0.4229140941965073,0.3330147025353908,0.2835897108572158
0.5603332011106704,0.5276435643564356,0.5124662060678882,0.4658211521926053,0.53027737986717,0.5360933648573871,0.4998596162845109,0.5886403975860844,0.5865459249676584,0.4256041629917093,0.3354727115480905,0.2878023871832514
0.5520031733439112,0.5216633663366336,0.5097026133974166,0.4726999140154772,0.5263706211746321,0.5311635394134514,0.4881609733270939,0.5793397231096912,0.5801811125485122,0.4200035279590756,0.3295097637580226,0.2804621178272802
0.5539071796905991,0.5186930693069306,0.5037548813457495,0.474097162510748,0.5344445891392108,0.5267870617234267,0.4779597566682264,0.5712460063897764,0.5747994825355757,0.4149320867877932,0.3240930401929992,0.2738877896214974
0.5587465291550973,0.5219009900990099,0.5049564433763892,0.4702815993121237,0.5370490949342361,0.5293022787866593,0.4868507253158634,0.5790557330493432,0.5791979301423027,0.4175339566061033,0.3259137876098138,0.2744622454841386
0.5649345497818327,0.5262178217821782,0.506818864523881,0.4652837489251934,0.5400442765985154,0.5328235826751849,0.4958352831071595,0.5889953851615193,0.5861319534282018,0.423707884988534,0.3327415904228685,0.2818663432692921
0.5693772312574376,0.5303762376237623,0.5097626914989486,0.4609307824591573,0.5405651777575206,0.536697016952563,0.4948993916705661,0.5938232161874334,0.5906338939197929,0.4292203210442757,0.3383403887295734,0.2898448969170868
0.5590638635462118,0.5280792079207921,0.51402823670772,0.4659823731728289,0.5274124234926423,0.5369988430001509,0.4846045858680392,0.5857294994675186,0.585717981888745,0.4257805609454929,0.3340616323000591,0.2847386225824982
0.561364537881793,0.5266930693069307,0.5102433163112045,0.4661435941530524,0.5334027868212007,0.534533930278183,0.4780533458118858,0.5817536386226482,0.5836998706338938,0.4239724819192096,0.331922254085302,0.2823131422735686
0.5761999206664024,0.5293465346534653,0.5030339441273656,0.4593185726569217,0.5534574814428962,0.5332260174053021,0.4840430510060832,0.5887113951011715,0.5886157826649417,0.4288675251367083,0.3369293094815421,0.2885044999042573
0.5806426021420072,0.5316831683168316,0.5031541003304296,0.4562016337059329,0.5569735642661804,0.5347854519845062,0.4964904071127749,0.600070997515087,0.5973091849935316,0.4353942494267066,0.3434840001820747,0.2965468819812344
0.5771519238397462,0.5290297029702969,0.5018323820967256,0.4592110920034394,0.5555410860789165,0.5325217566275969,0.5004211511464669,0.605040823571175,0.6006209573091849,0.4378638207796788,0.3451681915426282,0.2956532839726814
0.5634272114240382,0.522138613861386,0.5017723039951938,0.4685081685296646,0.5443417111603073,0.5281452789375723,0.4899391670566214,0.5965211217607383,0.5966364812419146,0.4336302698888692,0.3408894351131139,0.2884406714750749
0.5559698532328442,0.5186138613861385,0.5020726945028537,0.4734522785898537,0.5378304466727438,0.526032496604457,0.4807674309780064,0.5880724174653887,0.5905821474773608,0.4281178338331274,0.3361554918293959,0.2812280589774685
0.5677905593018644,0.5196435643564355,0.4946830880144187,0.4687231298366294,0.5556713113686678,0.523567583882489,0.4847917641553579,0.5929002484913029,0.5945666235446313,0.4317339918856941,0.3402066548318084,0.286844960745516
0.5733439111463705,0.5208316831683167,0.492279963953139,0.46603611349957,0.5628337023049875,0.5233160621761658,0.5004211511464669,0.6061767838125666,0.6032600258732211,0.4400246957135296,0.3488096863762575,0.2989085338609816
0.5747719159063864,0.5219009900990099,0.492820666866927,0.464853826311264,0.5633546034639927,0.5242215403189295,0.502386523163313,0.6078807241746539,0.6048641655886157,0.4413476803669077,0.3498566161409258,0.2982702495691581
0.55739785799286,0.5155247524752474,0.4963051967557825,0.4750644883920895,0.5452532881885662,0.5216057145731676,0.489845577912962,0.5962371317003904,0.5974126778783958,0.4347768565884635,0.3428467385861896,0.2883768430458926
0.5716779055930187,0.5206336633663365,0.4932412135776509,0.4667347377472055,0.5603594217997134,0.523567583882489,0.4825456247075338,0.5945331913383031,0.596326002587322,0.4338948668195448,0.342027402248623,0.2872279313206102
0.5750892502975011,0.5225742574257426,0.4936617602883749,0.464316423043852,0.5627034770152364,0.5249761054378993,0.4819840898455779,0.5964501242456515,0.5964294954721863,0.4339830657964367,0.3421639583048841,0.2886959851918044
0.5847679492264976,0.5304554455445544,0.4982276960048062,0.4556642304385211,0.5656986586795155,0.5319181045324212,0.4902199344875994,0.6041888533901314,0.6020698576972833,0.4395396013406244,0.348263462151213,0.2984617348567051
0.5805632685442286,0.5319603960396039,0.5036948032442174,0.4560941530524505,0.5563224378174241,0.5351375823733588,0.4952737482452035,0.6053958111466099,0.6021216041397154,0.4405538895748808,0.3480813874095316,0.3003127593029935
0.5711225704085681,0.5255841584158415,0.5011715229798739,0.4636177987962167,0.5512436515171246,0.5300568439056291,0.4891904539073467,0.597373091941782,0.5966364812419146,0.4352619509613687,0.3422094769903044,0.2918235782217399
0.5652518841729472,0.5182574257425743,0.4945028537098228,0.4705503009458298,0.5537179320223987,0.5226118013984606,0.4847917641553579,0.5909123180688676,0.5914618369987062,0.4300582113247485,0.3383859074149938,0.2862066764536924
0.5738992463308212,0.5209504950495049,0.492039651547011,0.4657674118658641,0.5634848287537438,0.5232657578349011,0.4896583996256434,0.5932552360667377,0.5933764553686933,0.4316898923972481,0.3406163230005917,0.2892704410544456
0.5776279254264182,0.5253465346534653,0.4958846500450585,0.4615219260533103,0.5623128011459825,0.5276925398661904,0.5010762751520823,0.6037628682996095,0.5996895213454074,0.4368495325454224,0.3445309299467431,0.2943128869598519
0.5775485918286395,0.527089108910891,0.4985881646139981,0.4603933791917455,0.5594478447714546,0.5299059308818351,0.503790360318203,0.6063187788427404,0.5995860284605433,0.4363644381725171,0.3425736264736674,0.291312950788281
0.572074573581912,0.5293861386138614,0.5062180835085611,0.4607158211521927,0.5465555410860788,0.5345842346194476,0.4889096864763687,0.5926162584309549,0.5903751617076325,0.4286029282060327,0.3348809686376257,0.2807812599731921
0.570011900039667,0.5294653465346534,0.5079002703514569,0.4613607050730868,0.5431696835525458,0.5353387997384175,0.4773982218062704,0.5841675541356052,0.5855109961190168,0.4248103721996824,0.3316036232873595,0.2763770983596093
0.5719952399841333,0.5301782178217821,0.5074797236407329,0.4601784178847807,0.5452532881885662,0.5356406257860052,0.4847917641553579,0.5892793752218672,0.5886675291073739,0.4269712471335332,0.3334243707041741,0.2778451522308036
0.5808012693375645,0.5363564356435643,0.5101832382096726,0.4530309544282029,0.5495507227503581,0.5406710599124704,0.4975198876930276,0.6010649627263045,0.5964294954721863,0.434468160169342,0.3404342482589103,0.2864619901704219
0.5849266164220548,0.5383366336633663,0.5100630820066085,0.4502901977644024,0.5529365802838911,0.5418783641028221,0.4974262985493682,0.6063897763578274,0.6005174644243209,0.4380843182219086,0.3442578178342209,0.2916320929341929
0.5846886156287189,0.537069306930693,0.5083208170621808,0.4512037833190026,0.5547597343404089,0.5403189295236179,0.4833879270004679,0.6006389776357828,0.5957050452781371,0.4332333744928558,0.3392507624379808,0.2860151911661454
0.5810392701309005,0.5381386138613861,0.5127065184740162,0.4516874462596732,0.5469462169553327,0.5428844509281151,0.4745905474964903,0.5965211217607383,0.5941526520051745,0.4307197036514376,0.3360644544585552,0.2820578285568391
0.5830226100753669,0.5446336633663366,0.5210573745869631,0.4466358555460016,0.5395233754395102,0.5504804064590774,0.4829199812821712,0.6048988285410011,0.6018628719275548,0.4363203386840712,0.3416632527652601,0.2882491861875279
0.5905593018643396,0.5532673267326732,0.528446981075398,0.4381986242476354,0.5377002213829926,0.5590824488153328,0.4952737482452035,0.6141285055023074,0.6104527813712807,0.442450167578056,0.3482179434657926,0.2967383672687815
0.5971439904799684,0.56209900990099,0.5368579152898768,0.4299763542562339,0.534053913269957,0.5681875345842345,0.4928404305100608,0.6134895278665247,0.6140750323415264,0.4440377491621097,0.348764167690837,0.2970575094146933
0.5873066243554146,0.5644752475247524,0.5479122859717632,0.4316960447119518,0.5139992186482614,0.574324664218522,0.4788956481048198,0.6118565850195243,0.6136093143596377,0.4423619686011641,0.3452137102280486,0.292717176230293
0.5813566045220151,0.5678019801980198,0.5574647041153499,0.4314810834049871,0.4986326344576116,0.5804617938528095,0.4610201216658867,0.6164004259850906,0.6162483829236739,0.4450079379079202,0.3468523829031817,0.29290866151784
0.5996033320111068,0.5769504950495049,0.557524782216882,0.419067067927773,0.5136085427790076,0.586297097439509,0.4413664014974263,0.6203762868299609,0.6233893919793014,0.452504850943729,0.355000227593427,0.3019084700325525
0.6152320507735026,0.5833267326732673,0.5553018924601982,0.4094475494411006,0.5288449016799062,0.5893656622566528,0.4231165184838558,0.615335463258786,0.6277878395860285,0.4594284706297407,0.3634211843961946,0.3167804940320418
0.6087266957556525,0.5828910891089109,0.5596275157705016,0.4119733447979363,0.5188175543690584,0.5909250968358569,0.414506317267197,0.6004259850905218,0.6198188874514876,0.4557241136002822,0.3607811006418134,0.3167804940320418
0.5911146370487902,0.581069306930693,0.5702012616401322,0.4191745485812553,0.4929027217085557,0.5941948790180592,0.3947590079550772,0.5818246361377353,0.6072445019404915,0.4474334097724465,0.3536801857162365,0.3097593668219824
0.5884966283220945,0.5858613861386138,0.5793932111745269,0.4168099742046431,0.4807917697616876,0.6010865737713165,0.374356574637342,0.5649272275470358,0.5951875808538163,0.4394514023637325,0.3484000182074742,0.3047169209165762
0.6003966679888934,0.5953663366336633,0.5848603184139382,0.4063306104901117,0.4846985284542257,0.6093867900799839,0.3771642489471221,0.561945331913383,0.5916688227684346,0.4379961192450167,0.3482179434657926,0.3047169209165762
0.604680682268941,0.5979009900990099,0.5854610994292581,0.4031599312123818,0.4874332595390024,0.6112983550480406,0.3926064576509124,0.5620163294284699,0.5898059508408796,0.4379961192450167,0.3492193545450407,0.3078445139465117
0.591193970646569,0.592079207920792,0.5868428957644939,0.4116509028374892,0.4749316317228805,0.6081794858896322,0.3987833411324286,0.5540646077387291,0.581267787839586,0.4295731169518433,0.3421639583048841,0.3001851024446288
0.579769932566442,0.5816237623762376,0.5796335235806549,0.4226676698194325,0.4733689282458653,0.5985210523668193,0.387459054749649,0.536670216542421,0.5671927554980595,0.4175780560945493,0.3302380627247485,0.2862705048828748
0.5700912336374455,0.5724752475247524,0.5730850105136677,0.4321259673258813,0.4724573512176064,0.5899190100105639,0.3817501169864295,0.5286474973375932,0.5597412677878395,0.4126389133886046,0.3244116709909417,0.2807174315440097
0.5889726299087664,0.5718811881188118,0.5578852508260739,0.4261070507308683,0.5044927724964188,0.5832285326223653,0.388020589611605,0.5377351792687256,0.5647089262613194,0.4180190509790086,0.331922254085302,0.2922703772260164
0.6167393891312972,0.5759603960396039,0.543045959747672,0.4139617368873602,0.5434301341320484,0.5796066200513104,0.3987833411324286,0.5514376996805112,0.573195342820181,0.4267948491797494,0.3430743320132914,0.3091849109593412
0.6149940499801667,0.5727524752475247,0.5395013517572845,0.4167024935511608,0.5457741893475714,0.5760853161627848,0.4012166588675713,0.5522896698615548,0.5728331177231565,0.4269712471335332,0.3444854112613227,0.3127593029935533
0.6065053550178502,0.5657821782178217,0.535355962751577,0.4243336199484093,0.5432999088422971,0.5698978821872328,0.3954141319606925,0.5419950301739439,0.563777490297542,0.4179308520021167,0.3347444125813646,0.301461671028276
0.5996033320111068,0.5594059405940593,0.5309101832382096,0.4309974204643164,0.5423883318140383,0.563961969918004,0.3984089845577912,0.5385871494497693,0.55875808538163,0.4127712118539424,0.3276434976557877,0.2898448969170868
0.5772312574375248,0.5566732673267326,0.5437068188645238,0.4404557179707652,0.5102226852454746,0.5675838824890588,0.4271408516612072,0.5556975505857296,0.5689003880983182,0.4172252601869817,0.3299649506122263,0.2872279313206102
0.5654898849662833,0.5573069306930692,0.5535596275157705,0.4439488392089423,0.4899075400442765,0.5721615775441421,0.4654188114178755,0.5748668796592119,0.5839068564036222,0.4264861527606279,0.3361099731439755,0.2921427203676517
0.5581911939706466,0.5495049504950494,0.5472514268549113,0.4517411865864145,0.4906888917827842,0.5645656220131797,0.4824520355638745,0.5800496982605609,0.5853557567917205,0.426397953783736,0.3346078565251035,0.2890151273377162
0.5433558111860374,0.5368712871287129,0.5392610393511564,0.4653374892519347,0.4871728089594999,0.5531968408873685,0.4817033224145999,0.5785587504437345,0.5818369987063389,0.4219880049391426,0.3278710910828895,0.2755473287802387
0.5409758032526776,0.5280792079207921,0.5278462000600781,0.4721087704213241,0.4977210574293527,0.5427838422455858,0.4787084698175011,0.5769258075967341,0.580077619663648,0.4184600458634679,0.3230916291137511,0.2655900938277908
0.5466084886949624,0.526059405940594,0.5204565935716431,0.4715713671539123,0.5102226852454746,0.5384576688968258,0.4919981282171267,0.5893503727369541,0.5873738680465718,0.4222526018698183,0.3263234557785971,0.2654624369694261
0.558111860372868,0.5298613861386139,0.5175728446981075,0.4650687876182287,0.5228545383513478,0.5396146687459128,0.5038839494618624,0.6011359602413916,0.5946701164294954,0.4284706297406949,0.3325595156811871,0.2715261377417501
0.5566045220150735,0.5301782178217821,0.5191348753379392,0.4653912295786758,0.5199895819768199,0.5405201468886764,0.5053813757604118,0.6017039403620873,0.5965329883570504,0.4299700123478567,0.3347899312667849,0.2744622454841386
0.5415311384371282,0.5228910891089108,0.5194953439471313,0.4754406706792777,0.5072275035811954,0.5359927561748579,0.4965839962564342,0.5937522186723465,0.5912031047865458,0.4249426706650202,0.3282807592516728,0.2664198634071615
0.5381991273304245,0.5166732673267327,0.5125863622709522,0.4807609630266551,0.5119156140122412,0.52920167010413,0.4974262985493682,0.5996450124245651,0.5947218628719275,0.4254277650379255,0.3258227502389731,0.2624625007978553
0.5397857992859977,0.5118019801980198,0.5039951937518774,0.4835554600171968,0.522463862482094,0.5225111927159314,0.5206364061768834,0.6273340433084842,0.6130401034928848,0.4376433233374492,0.3344713004688424,0.2664198634071615
0.5534311781039271,0.5150891089108911,0.4986482427155302,0.476676698194325,0.5395233754395102,0.5223602796921375,0.5435657463734207,0.6560880369187078,0.6359120310478654,0.4567825013229846,0.3508580272201739,0.278994063956086
0.5607298690995637,0.5253465346534653,0.5086812856713727,0.4672721410146173,0.534574814428962,0.5330751043815082,0.5518015910154421,0.6855520056798011,0.6673738680465717,0.4818310107602751,0.3705676180071919,0.2931001468053871
0.5558111860372869,0.5401584158415841,0.5348753379393211,0.4588886500429922,0.5022789425706472,0.5533980582524272,0.5455311183902667,0.7162229321973731,0.7121862871927553,0.5203298641735755,0.4043880012745232,0.3229718516627305
0.5592225307417692,0.5534257425742574,0.5524782216881946,0.448731728288908,0.4858705560619871,0.5692439257507923,0.5417875526438933,0.7405040823571175,0.7459249676584735,0.5520373963662021,0.4350220765624288,0.3538009829578094
0.5974613248710829,0.5912871287128713,0.5808951637128267,0.4100924333619948,0.4865216825107435,0.6051612254137532,0.5417875526438933,0.785019524316649,0.8174385510996117,0.6237431645792908,0.5086713095725796,0.4367779408948746
0.6807616025386752,0.6465742574257426,0.6017422649444278,0.3443680137575235,0.5323609845031905,0.6489763066552643,0.4860084230229293,0.8190983315583955,0.9003880983182405,0.7456341506438524,0.6442259547544267,0.5920086806663687
0.7857199523998414,0.7232079207920792,0.6384499849804746,0.2568250214961307,0.5785909623648913,0.7130640374264299,0.3494618624239587,0.7703940362087326,0.9119793014230272,0.8598518257188217,0.8000364149483364,0.7821535712006127
0.8330027766759223,0.7977425742574258,0.7157104235506158,0.1902407566638005,0.5337934626904545,0.7927461139896373,0.2236780533458118,0.6545970891018813,0.8324450194049159,0.876212735932263,0.8609404160407848,0.8800025531371672
0.8185640618802065,0.828990099009901,0.7740462601381796,0.173957437661221,0.4586534705039718,0.8369636299612656,0.1503977538605521,0.5275115370962016,0.6678395860284604,0.751234785676486,0.769948563885475,0.8263866726239867
0.748115827052757,0.8000396039603959,0.7834785220787024,0.2174333619948409,0.3905456439640578,0.8225765883595754,0.1434721572297613,0.3880724174653887,0.4380336351875808,0.4991621097195272,0.5376211934999316,0.6377736643901194
0.5851646172153908,0.7838019801980197,0.8821868428957645,0.2836414445399828,0.1498893085037114,0.8535640625786005,0.1479644361254094,0.1915512957046503,0.1937386804657179,0.2109278532369023,0.2524921480267649,0.3880130209995531
0.4771915906386355,0.7076435643564357,0.8484830279363172,0.3718830610490112,0.0977991926032035,0.7910860707279038,0.2764623303696771,0.2232871849485268,0.153169469598965,0.1009878285411888,0.0978196549683645,0.1937831109976383
0.4307021023403412,0.5837623762376237,0.6957644938419946,0.4716788478073946,0.2251595259799452,0.6484732632426178,0.4833879270004679,0.4123535676251331,0.2684087968952134,0.1542159110954312,0.0993672902726569,0.1049339375757962
0.4255454184847283,0.5162772277227722,0.5972964854310604,0.5191852966466036,0.3276468290141945,0.5644147089893858,0.6169396350023397,0.5803336883209088,0.3879948253557567,0.2352707708590579,0.1522144840457007,0.097593668219825
0.4446648155493852,0.5201980198019801,0.5887653950135175,0.5101031814273431,0.352519859356687,0.5633080134815635,0.6406176883481516,0.6301739439119631,0.4524708926261319,0.29273240430411,0.2034685238290318,0.1345503287164102
0.4850456168187227,0.5367128712871286,0.5831781315710424,0.4851676698194325,0.3917176715718192,0.571457316766437,0.5892372484791764,0.6167554135605254,0.4989909443725743,0.3418592344328805,0.2524011106559242,0.1905916895385204
0.5009916699722333,0.5366336633663366,0.5710423550615801,0.479847377472055,0.4180231801015757,0.5663262739574425,0.5179223210107627,0.5968051118210863,0.5356791720569211,0.3768301287705062,0.2851745641585871,0.2271653794600114
0.5065450218167394,0.5295445544554455,0.5560829077801142,0.4828030954428202,0.4388592264617788,0.5555611449268072,0.4792700046794571,0.5806176783812567,0.5552393272962484,0.3926618451225965,0.2987391324138558,0.2396119231505712
0.5143990479968268,0.5227326732673266,0.5398017422649444,0.484737747205503,0.4629509050657637,0.5443935811660546,0.4766495086569957,0.5799787007454739,0.5671927554980595,0.4014817428117833,0.3049751923164459,0.2431863151847832
0.5265370884569616,0.518138613861386,0.5236407329528386,0.4837166809974204,0.4904284412032816,0.5347351476432416,0.5049134300421151,0.6056088036918708,0.5897542043984475,0.4181954489327923,0.3187218353133961,0.2582498244718197
0.5391511305037684,0.513029702970297,0.5063382397116251,0.4829643164230437,0.5194686808178147,0.5242718446601942,0.5300889096864764,0.627689030883919,0.6082276843467012,0.4322190862585993,0.3309663616914743,0.2706325397331972
0.5312177707259025,0.5074059405940594,0.5038149594472814,0.4894131556319863,0.515692147415028,0.5196438452638462,0.5287786616752457,0.6247781327653532,0.608796895213454,0.4320426883048156,0.329054576903819,0.2666113486947086
0.5293930979769933,0.5062178217821782,0.5033944127365575,0.4908641444539983,0.5146503450970178,0.5186880627798179,0.5125877398221805,0.6119275825346113,0.6021733505821474,0.4247221732227905,0.3223633301470253,0.255632858875343
0.5289170963903214,0.5071287128712871,0.5051366776809854,0.4904342218400687,0.512306289881495,0.5199959756526987,0.5068788020589612,0.6069577564785233,0.5989133247089261,0.4216793085200211,0.3184487232008739,0.2500159571072955
0.5355811186037288,0.5097425742574258,0.5040552718534094,0.4864036973344798,0.5189477796588097,0.5212032798430505,0.5136172204024333,0.6133475328363508,0.6037774902975419,0.4262215558299523,0.3224998862032864,0.2544201187208783
0.5381991273304245,0.5109306930693068,0.5038750375488135,0.4846840068787618,0.5212918348743325,0.5219075406207556,0.5218530650444548,0.6200922967696131,0.6105045278137127,0.4323954842123831,0.3288269834767172,0.2611221037850258
0.5347877826259422,0.5102970297029702,0.5055572243917091,0.4862424763542562,0.5167339497330381,0.5222093666683435,0.520542817033224,0.6212992545260916,0.6124191461836999,0.434468160169342,0.3306932495789521,0.263483755664773
0.5196350654502183,0.5045544554455446,0.5082006608591169,0.4953245915735167,0.5013673655423883,0.5196438452638462,0.5104351895180159,0.6112176073837415,0.6047089262613194,0.427103545598871,0.3236833720242159,0.252760579562137
0.5204284014280048,0.5043564356435644,0.507359567437669,0.4951633705932932,0.5030602943091548,0.5191408018511997,0.4974262985493682,0.6018459353922613,0.5997930142302716,0.4231345916387369,0.3209067322135736,0.2488670453820131
0.5243950813169378,0.5086336633663366,0.5109041754280564,0.4909178847807395,0.5024091678603985,0.5233663665174304,0.5022929340196537,0.6068867589634362,0.6041914618369987,0.4287793261598164,0.3262324184077564,0.2578030254675432
0.5380404601348672,0.5134257425742574,0.5077801141483929,0.483018056749785,0.5169944003125406,0.5250767141204286,0.5138043986897519,0.6195953141640043,0.6128848641655886,0.4370259304992061,0.3348354499522054,0.2707601965915618
0.5423244744149148,0.5131881188118811,0.5041754280564734,0.4817820292347378,0.524417241828363,0.5234166708586951,0.517735142723444,0.6210152644657436,0.6153169469598965,0.4389222085023813,0.3372479402794847,0.2755473287802387
0.5298690995636653,0.5075643564356435,0.5050765995794533,0.4897893379191746,0.5132178669097539,0.5202474973590221,0.502948058025269,0.6075967341143059,0.6063648124191461,0.4310284000705591,0.3295097637580226,0.2652071232526967
0.529234430781436,0.508118811881188,0.5063382397116251,0.489628116938951,0.5113947128532361,0.5211026711605211,0.4947122133832475,0.599858004969826,0.6013971539456662,0.4269712471335332,0.3262779370931767,0.2590795940511904
0.5420864736215788,0.5122376237623761,0.5029738660258335,0.4824806534823732,0.5254590441463731,0.5223602796921375,0.5080954609265325,0.6093716719914803,0.6089003880983181,0.4339389663079908,0.3331057399062315,0.2694836280079147
0.5493851646172154,0.513069306930693,0.4986482427155302,0.4794174548581255,0.5361375179059772,0.5210523668192565,0.5188582124473561,0.6186723464678736,0.6139197930142302,0.4386576115717057,0.336292047885657,0.2731856769004914
0.5442284807616026,0.5158415841584159,0.5067587864223491,0.4793099742046431,0.5232452142206017,0.5261834096282509,0.515769770706598,0.6150514731984381,0.6118499353169469,0.4373346269183276,0.3354727115480905,0.2710793387374736
0.5320904403014677,0.5168712871287129,0.5175127665965755,0.4827493551160791,0.5016278161218908,0.5313647567785099,0.4960224613944781,0.6018459353922613,0.6031047865459249,0.4300582113247485,0.3283262779370931,0.2606114763515669
0.5387544625148751,0.5181782178217822,0.5144487834184439,0.479578675838349,0.5103529105352259,0.5309120177071281,0.4831071595694899,0.5938942137025205,0.5984476067270375,0.4265743517375198,0.3250034139014064,0.2555690304461607
0.5456564855216185,0.5203168316831683,0.5125262841694203,0.4757631126397248,0.5181664279203021,0.5314653654610393,0.4913430042115114,0.6027689030883919,0.6049676584734799,0.433762568354207,0.3323774409395056,0.267058147698985
0.550654502181674,0.5203564356435643,0.5087413637729048,0.4740434221840068,0.5262403958848808,0.5299059308818351,0.5013570425830604,0.6141995030173943,0.6132470892626132,0.4409948844593401,0.3406163230005917,0.278100465947533
0.5444664815549385,0.5143762376237623,0.5043556623610693,0.4802235597592433,0.5259799453053782,0.5242718446601942,0.4970519419747309,0.6110756123535677,0.6110737386804657,0.4388340095254894,0.3392507624379808,0.2786749218101742
0.5389131297104325,0.511128712871287,0.5036347251426855,0.4843078245915735,0.5222034119025915,0.5219075406207556,0.4821712681328965,0.5989350372736953,0.602535575679172,0.4325277826777208,0.3331057399062315,0.2706325397331972
0.5398651328837764,0.5119207920792079,0.5041153499549413,0.4834479793637146,0.522463862482094,0.5226118013984606,0.4758072063640617,0.5925452609158679,0.5981371280724449,0.4302787087669782,0.3307387682643725,0.2658454075445203
0.5512098373661246,0.5188910891089108,0.5060378492039651,0.4748495270851247,0.5296262534184137,0.5278434528899844,0.4810481984089845,0.6016329428470004,0.6058473479948253,0.4372023284529899,0.3372479402794847,0.2743345886257739
0.5580325267750894,0.5268514851485148,0.5129468308801443,0.4671646603611349,0.527803099361896,0.5357915388097994,0.4904071127749181,0.6118565850195243,0.6134540750323414,0.4428470629740694,0.343392962811234,0.282568455990298
0.5582705275684253,0.5275247524752475,0.513908080504656,0.4666272570937231,0.5268915223336371,0.5365964082700336,0.4877866167524566,0.6090876819311324,0.6117981888745149,0.442450167578056,0.3441212617779598,0.2826961128486627
0.5531931773105911,0.5213465346534654,0.5082607389606488,0.4725386930352536,0.5288449016799062,0.5303083656119523,0.4708469817501169,0.5961661341853035,0.603156532988357,0.4369818310107602,0.3384769447858346,0.2758026424969682
0.5517651725505752,0.5203168316831683,0.5078401922499249,0.4737209802235597,0.5281937752311499,0.5295034961517179,0.4598034627983153,0.58991835285765,0.5998447606727036,0.4346004586346798,0.3346988938959442,0.2717176230292972
0.569297897659659,0.5285940594059405,0.507119255031541,0.4621668099742047,0.5434301341320484,0.5344333215956537,0.4651380439868974,0.5977990770323038,0.6071927554980594,0.441788675251367,0.3427557012153489,0.281674857981745
0.5761205870686236,0.5316831683168316,0.5066987083208171,0.4577601031814273,0.5494204974606068,0.5362442778811811,0.477023865231633,0.6105076322328717,0.6165071151358343,0.4520197565708236,0.3540898538850198,0.2972489947022403
0.568583895279651,0.5254257425742573,0.5027936317212376,0.464585124677558,0.5474671181143377,0.5306101916595402,0.4773982218062704,0.6092296769613064,0.6166106080206984,0.4526371494090667,0.3544540033683827,0.2978234505648816
0.5623958746529156,0.5200396039603961,0.4993691799339141,0.4702815993121237,0.5461648652168251,0.5257809748981337,0.4626111371080954,0.5988640397586085,0.6104527813712807,0.448447698006703,0.3501752469388683,0.2899725537754516
0.5681872272907578,0.5235247524752474,0.5002703514568939,0.4659823731728289,0.5499413986196119,0.5283968006438955,0.4541881141787552,0.5930422435214767,0.607503234152652,0.4470806138648791,0.3489462424325185,0.2878662156124337
0.5779452598175328,0.5287920792079207,0.5008711324722138,0.4591036113499569,0.557234014845683,0.5319684088736858,0.4622367805334581,0.6,0.6129883570504526,0.45184335861704,0.3538622604579179,0.294695857534946
0.5827052756842523,0.5324752475247525,0.5028537098227696,0.4550193465176267,0.5589269436124495,0.5351375823733588,0.4727187646233037,0.6093716719914803,0.6198706338939197,0.4574439936496736,0.3600072829896672,0.3027382396119231
0.575803252677509,0.5294257425742573,0.5034544908380896,0.4593723129836629,0.5526761297043885,0.5334775391116253,0.4672905942910622,0.6082357117500887,0.6195084087968952,0.4580613864879166,0.3605079885292913,0.3045254356290292
0.573264577548592,0.5239999999999999,0.4970862120756984,0.4639402407566637,0.5574944654251855,0.5273404094773378,0.4475432849789424,0.5993610223642172,0.6143337645536869,0.4553272182042687,0.3590513905958395,0.3013978425990936
0.5694565648552163,0.5226930693069306,0.4979873835986782,0.4660898538263113,0.5534574814428962,0.5268876704059561,0.4350023397285914,0.5967341143059992,0.6142302716688227,0.4570911977421061,0.3607811006418134,0.3023552690368289
0.5863546211820707,0.5299009900990098,0.4961850405527184,0.4555030094582974,0.5692147415027998,0.5307108003420695,0.4349087505849321,0.6059637912673057,0.6232858990944372,0.4667489857117657,0.3713869543447585,0.3174187783238654
0.5982546608488696,0.5331881188118811,0.4920997296485431,0.4492691315563198,0.5834092980856882,0.531062930730922,0.4347215722976134,0.6146964856230032,0.6318758085381629,0.4756129828893984,0.3814465838226591,0.3333758856194549
0.5912733042443475,0.5287920792079207,0.4907179333133073,0.4545894239036973,0.5792420888136476,0.5276925398661904,0.4253626579316799,0.6133475328363508,0.6336351875808537,0.4806844240606808,0.387546087668988,0.3403331844003319
0.5844506148353829,0.5252673267326733,0.4905376990087113,0.4593185726569217,0.5737726266440943,0.5253785401680164,0.4093589143659334,0.605040823571175,0.6318240620957308,0.4820074087140588,0.3894123537712231,0.3409714686921554
0.5873066243554146,0.5241584158415842,0.4867527786121958,0.4590498710232158,0.5802838911316578,0.5231148448111071,0.4043051006083293,0.6063897763578274,0.6352910737386804,0.4861086611395307,0.3955573763029724,0.3473543116103912
0.6084886949623166,0.5293465346534653,0.4785821568038449,0.4484092863284609,0.606459174371663,0.5229639317873132,0.4068320074871314,0.6212282570110047,0.648175937904269,0.4989416122772975,0.4091674632436615,0.3633114189059807
0.6277667592225308,0.5365148514851484,0.4748573145088615,0.4370163370593293,0.626253418413856,0.5259821922631923,0.4079550772110435,0.6335818246361377,0.6603880983182405,0.5128770506262127,0.4236879238927579,0.3823322908023233
0.6245934153113845,0.5356831683168316,0.4759987984379693,0.4386285468615649,0.6224768850110691,0.5259318879219276,0.3985025737014506,0.6342917997870076,0.6638551099611901,0.5195360733815487,0.4314261004142199,0.3908853003127592
0.6208647362157874,0.5373465346534653,0.4812856713727845,0.4387897678417884,0.6136215653079827,0.52920167010413,0.3792232101076275,0.630528931487398,0.6644760672703751,0.5225348385958721,0.4342027402248622,0.3931831237633241
0.6285600952003174,0.5418217821782179,0.4822469209972964,0.4331470335339639,0.6189608021877848,0.5324211479450677,0.3674309780065512,0.630528931487398,0.6677878395860284,0.5267683894866819,0.43766216031681,0.3963107167932597
0.6397461324871084,0.5467722772277227,0.4813457494743166,0.4259458297506448,0.629118374788384,0.5352381910558881,0.3677117454375292,0.6411075612353567,0.6792238033635187,0.5373081672252602,0.4495425372115253,0.4112465692219314
0.6525981753272513,0.5528712871287128,0.4809252027635927,0.4174548581255374,0.6401875244172418,0.5389104079682077,0.37463734206832,0.6559460418885339,0.693816300129366,0.5509790086434997,0.4647912968273476,0.4310972106976447
0.6563268544228481,0.552118811881188,0.4768999699609492,0.4167024935511608,0.6476103659330642,0.5367473212938276,0.3677117454375292,0.6587149449769257,0.6979042690815005,0.5556535544187687,0.4695707587964859,0.4356928575987744
0.65148750495835,0.5526732673267326,0.4814058275758485,0.4179922613929492,0.6386248209402265,0.5389607123094723,0.3490875058493214,0.6537451189208379,0.696248382923674,0.5565355441876874,0.4707087259319951,0.4381183379077041
0.6598968663228878,0.5632871287128712,0.4911384800240312,0.4079428202923473,0.6349785128271911,0.549826450022637,0.3386055217594759,0.6523251686190983,0.6984217335058214,0.5602399012171458,0.4752605944740316,0.4461607199846811
0.6769535898452995,0.5795643564356435,0.5029738660258335,0.391122098022356,0.6361505404349524,0.565118969767091,0.3485259709873654,0.6663116790912319,0.710116429495472,0.5704268830481566,0.4860485229186581,0.4602668028339822
0.6829829432764776,0.5874059405940594,0.5101832382096726,0.3837596732588134,0.6332855840604245,0.5730670556869057,0.3583528310715956,0.678452254171104,0.7207761966364812,0.5783647909684247,0.494514998406846,0.4713091210825301
0.6728282427608092,0.5847920792079208,0.513968158606188,0.3889724849527085,0.6209141815340539,0.5730167513456411,0.3589143659335516,0.6795882144124956,0.7237257438551099,0.5790262832951137,0.495516409486094,0.4734792876747302
0.6571995239984134,0.5773069306930693,0.5143887053169119,0.3993443680137575,0.6076312019794244,0.5684390562905578,0.3499298081422555,0.6721334753283634,0.7172574385510996,0.5721908625859939,0.4873685647958487,0.4638411948681942
0.6495041650138834,0.580990099009901,0.5258035446079904,0.3994518486672399,0.5890089855449927,0.5755822727501384,0.3532990173139915,0.6679446219382321,0.7128589909443726,0.564120656200388,0.4772178979471072,0.4501819110231697
0.6478381594605316,0.5910891089108911,0.54238510063082,0.393164230438521,0.5696054173720536,0.5889129231852709,0.3650912494150678,0.673269435569755,0.7154980595084087,0.5609013935438348,0.4720287678091856,0.4438628965341163
0.636572788575962,0.5971089108910891,0.5601081405827576,0.3928955288048151,0.5410860789165256,0.6001810956285527,0.3828731867103415,0.6765353212637557,0.71503234152652,0.5555212559534308,0.4646092220856661,0.4353737154528627
0.6267354224514083,0.597980198019802,0.5688795434064283,0.3956362854686156,0.5235056648001041,0.6044066602947834,0.3940102948058025,0.6720624778132765,0.706908150064683,0.5442758863997177,0.4506349856616141,0.4191612944405438
0.6166600555335185,0.5911287128712871,0.5661159507359567,0.4036973344797936,0.5182966532100532,0.5988731827556718,0.3956948993916704,0.6570110046148385,0.689469598965071,0.526062797671547,0.4307888388183349,0.3941405502010595
0.6023800079333599,0.5844752475247524,0.5668368879543406,0.41304815133276,0.5057950253939315,0.594949444137029,0.4064576509124941,0.6462193823216187,0.6748253557567917,0.5083789028047274,0.4120351404251445,0.3703963745452224
0.6019833399444665,0.5843960396039604,0.5670171222589366,0.4132093723129836,0.5052741242349263,0.5949997484782936,0.4267664950865699,0.6447994320198793,0.6676326002587322,0.4990739107426353,0.4017934362055624,0.3553966936873683
0.5899246330821104,0.5834851485148514,0.5747071192550315,0.417938521066208,0.4870425836697486,0.5976155742240555,0.4442676649508656,0.6417465388711395,0.6599741267787839,0.489901217145881,0.3913241385588784,0.3416735814131614
0.5775485918286395,0.5765940594059406,0.5736857915289877,0.4268056749785038,0.4779268133871597,0.592786357462649,0.4477304632662611,0.629960951366702,0.6464683053040103,0.4760098782854118,0.376439528426419,0.3259717878343013
0.5590638635462118,0.5672079207920792,0.5734454791228597,0.4394346517626827,0.463081130355515,0.5867498365108909,0.4442676649508656,0.6154774582889598,0.6305304010349287,0.4619862409596048,0.3623287359461058,0.3082274845216059
0.5539071796905991,0.5634851485148514,0.5716431360768999,0.4437338779019776,0.4607370751399921,0.5836309673524824,0.4442676649508656,0.6061767838125666,0.6188874514877102,0.4525489504321749,0.3523146251536255,0.2968660241271462
0.5645378817929394,0.5679207920792079,0.5703814959447281,0.4371238177128116,0.4708946477405912,0.5858946627093917,0.4521291530182498,0.6071707490237842,0.6174385510996119,0.4496824836831892,0.3498110974555055,0.2943767153890342
0.5681872272907578,0.5702574257425742,0.571222589366176,0.4342755803955287,0.4729782523766115,0.5877559233361839,0.4579316799251287,0.6078097266595669,0.6174902975420439,0.4490209913565002,0.3480813874095316,0.2934831173804812
0.5566045220150735,0.5671683168316831,0.5751877440672875,0.4402944969905416,0.4591743716629769,0.587454097288596,0.4568086102012166,0.6044018459353923,0.6122639068564036,0.4441259481390016,0.3429832946424507,0.2872279313206102
0.5497818326061088,0.5609504950495049,0.5709822769600481,0.4467970765262252,0.4581325693449667,0.5817194023844258,0.445484323818437,0.5929002484913029,0.6023803363518757,0.4360116422649497,0.337156902908644,0.27829195123508
0.5471638238794131,0.5579801980198019,0.5684589966957044,0.4496990541702494,0.4587836957937231,0.578801750591076,0.4499766027140851,0.5924742634007809,0.5994825355756791,0.4333215734697477,0.3347444125813646,0.27720686793898
0.5564458548195161,0.559089108910891,0.5631120456593571,0.4458297506448839,0.4721969006381039,0.5772423160118718,0.4601778193729527,0.5992900248491303,0.6027943078913324,0.4355706473804903,0.3375210523920069,0.2837173677155805
0.5671558905196351,0.5613861386138613,0.5585461099429258,0.4406706792777299,0.4858705560619871,0.5767895769404899,0.4687880205896115,0.6054668086616969,0.606882276843467,0.4387017110601516,0.3405708043151713,0.2892066126252632
0.5626338754462515,0.5606732673267326,0.5608290778011414,0.4426590713671539,0.4797499674436775,0.5772926203531364,0.4671970051474028,0.6031238906638267,0.6061578266494179,0.4376874228258952,0.339023169010879,0.2867173038871513
0.5569218564061881,0.5553663366336633,0.5571643136076899,0.4481943250214961,0.4789686157051699,0.5724130992504654,0.4507253158633598,0.5921192758253461,0.5989650711513583,0.4312047980243428,0.3327871091082889,0.2778451522308036
0.5542245140817137,0.5567524752475247,0.5611895464103335,0.4481405846947549,0.4723271259278551,0.5749786206549625,0.4512868507253158,0.5929712460063897,0.5980336351875808,0.4293967189980595,0.3306477308935318,0.274717559200868
0.5619992066640223,0.5602376237623762,0.5607089215980775,0.4431427343078246,0.4793592915744237,0.5769907943055486,0.4627047262517547,0.6010649627263045,0.601966364812419,0.4332333744928558,0.3335154080750148,0.2782281228058977
0.5633478778262595,0.5637623762376237,0.5649744668068488,0.4402944969905416,0.4757129834613881,0.5810151416067206,0.4692559663079082,0.6036208732694355,0.6055368693402329,0.4353060504498147,0.3358368610314534,0.278994063956086
0.5635858786195955,0.5643564356435643,0.5656954040252328,0.439810834049871,0.4751920823023831,0.5816690980431611,0.4647636874122601,0.5997870074547391,0.6047089262613194,0.4353060504498147,0.3350175246938868,0.2770792110806153
0.5605712019040063,0.5595247524752475,0.5606488434965455,0.4441638005159071,0.4781872639666623,0.576487750892902,0.458025269068788,0.5953141640042598,0.6010866752910736,0.4325718821661668,0.3326960717374482,0.2738877896214974
0.565569218564062,0.5605148514851485,0.5583658756383298,0.4417454858125537,0.4846985284542257,0.5761859248453142,0.4569021993448759,0.5977990770323038,0.6028460543337645,0.4338507673310989,0.3345623378396831,0.276313269930427
0.5765965886552956,0.565069306930693,0.556924001201562,0.4349742046431643,0.4953770022138298,0.5784496202022235,0.4640149742629855,0.6053958111466099,0.6095213454075031,0.440421591109543,0.3412535845964768,0.2865258185996042
0.5826259420864737,0.5681980198019801,0.557104235506158,0.4307824591573516,0.5001953379346269,0.5805120981940741,0.4707533926064576,0.6104366347177849,0.6142820181112548,0.4446992414887986,0.346260639992717,0.2943128869598519
0.5807219357397859,0.5652673267326732,0.5541604085310904,0.4334157351676698,0.501758041411642,0.5774435333769304,0.4614880673841834,0.6066737664181754,0.6119534282018111,0.4425824660433938,0.3445309299467431,0.290419352779728
0.5721539071796906,0.5621386138613861,0.5557825172724542,0.4384135855546001,0.4930329469983071,0.5761356205040494,0.4461394478240523,0.5980830670926518,0.6064165588615782,0.4387458105485975,0.3406618416860121,0.2827599412778451
0.5689805632685443,0.5609108910891089,0.5563832982877741,0.4403482373172829,0.489647089464774,0.5756325770914029,0.444361254094525,0.5961661341853035,0.6053298835705044,0.4400246957135296,0.3417542901361008,0.2825046275611156
0.5784212614042047,0.5631683168316831,0.5526584559927905,0.4356190885640584,0.5014975908321396,0.575481664067609,0.4506317267197005,0.6058927937522186,0.6121086675291073,0.4469042159110953,0.3495379853429832,0.293802259526393
0.5835779452598175,0.5643168316831683,0.550555722439171,0.4330932932072227,0.508008855319703,0.575330751043815,0.4640149742629855,0.6161874334398295,0.6216300129366105,0.455768213088728,0.3591879466521006,0.3080359992340588
0.5773899246330821,0.560079207920792,0.5487533793932111,0.4380374032674118,0.5048834483656726,0.5718597514965541,0.4641085634066448,0.6137735179268725,0.6197671410090556,0.4540924325277826,0.3581410168874323,0.3070785727963234
0.575327251090837,0.5558415841584158,0.5438870531691199,0.4416380051590713,0.5083995311889569,0.5671311434176769,0.4498830135704258,0.6040468583599574,0.6124191461836999,0.4487122949373787,0.3536801857162365,0.3017808131741877
0.5846092820309402,0.559009900990099,0.5416641634124362,0.436371453138435,0.5185571037895559,0.5682378389254993,0.4442676649508656,0.6021299254526091,0.6115394566623544,0.4494178867525136,0.3531339614911921,0.3004404161613582
0.593018643395478,0.5663762376237623,0.5464704115349955,0.4284716251074806,0.5202500325563225,0.5749283163136979,0.4510996724379971,0.6090166844160455,0.6166623544631307,0.4535191391779855,0.3569575310665027,0.3042062934831173
0.5917493058310196,0.5706138613861386,0.5538600180234304,0.4260533104041272,0.5111342622737335,0.5807133155591327,0.463079082826392,0.6173233936812211,0.6221474773609313,0.4580613864879166,0.3600072829896672,0.3070785727963234
0.5869099563665213,0.5647128712871287,0.5485731450886152,0.4316960447119518,0.5129574163302513,0.5747270989486392,0.4578380907814693,0.6141285055023074,0.6204915912031047,0.4563415064385253,0.3587782784833174,0.305227548350035
0.5806426021420072,0.5581386138613861,0.5434064283568639,0.4382523645743765,0.5133480921995051,0.5683887519492932,0.4472625175479643,0.6056088036918708,0.6140232858990944,0.4510495678250131,0.3539532978287587,0.2973128231314227
0.5819119397064657,0.5589702970297029,0.5435866626614599,0.4372850386930352,0.5142596692277639,0.568992404044469,0.4430510060832943,0.6045438409655662,0.6131953428201811,0.4503439760098782,0.3527698120078292,0.2940575732431225
0.5906386354621184,0.567089108910891,0.549354160408531,0.4288478073946689,0.5150410209662717,0.5765883595754313,0.4537201684604586,0.6120695775647852,0.6196636481241914,0.4570029987652142,0.3586872411124767,0.3017808131741877
0.6031733439111465,0.5715643564356435,0.5466506458395914,0.4215391229578676,0.5283240005209011,0.5782987071784295,0.461394478240524,0.6208022719204828,0.6258214747736093,0.4617216440289292,0.3651964131275888,0.3101423373970766
0.5953986513288378,0.5645940594059405,0.5419645539200961,0.4289015477214101,0.5270217476233885,0.5719100558378188,0.4583996256434253,0.6180333688320909,0.6229754204398447,0.4596489680719703,0.3635577404524557,0.3075253718005999
0.5837366124553749,0.5577425742574257,0.5404025232802643,0.4374999999999999,0.5192082302383122,0.5669299260526184,0.4467945718296677,0.6079517216897408,0.6156274256144889,0.4536514376433233,0.3569120123810824,0.3010787004531818
0.5769932566441889,0.5548118811881187,0.5410633823971163,0.4417454858125537,0.5129574163302513,0.5653201871321495,0.4434253626579316,0.6046858359957401,0.6127813712807244,0.450476274475216,0.3537712230870772,0.2985255632858875
0.578579928599762,0.5575445544554455,0.5440072093721837,0.4393809114359415,0.5110040369839822,0.5682881432667639,0.4539073467477771,0.6122825701100462,0.6188874514877102,0.4543570294584582,0.3582775729436934,0.3036318376204761
0.5814359381197939,0.5597623762376237,0.5452087714028236,0.4369088564058468,0.5120458393019924,0.5701997082348206,0.4633598502573701,0.617749378771743,0.6221992238033635,0.4566061033692008,0.3608266193272338,0.3058020042126763
0.5836572788575962,0.5592871287128712,0.542805647341544,0.4364789337919175,0.5164734991535356,0.5688917953619397,0.4588675713617219,0.6116435924742634,0.6179560155239326,0.4527694478744046,0.3557740452455733,0.2984617348567051
0.5791352637842127,0.559009900990099,0.5457494743166116,0.4381986242476354,0.5095715587967183,0.5699481865284973,0.4428638277959756,0.5985800496982606,0.6090556274256144,0.4455371317692714,0.3484000182074742,0.2872279313206102
0.5745339151130505,0.5598019801980197,0.5504956443376389,0.4392196904557179,0.5005860138038807,0.5724634035917299,0.4401497426298549,0.5965211217607383,0.6065717981888744,0.4440377491621097,0.3465337521052392,0.2853769068743218
0.5808806029353433,0.5638811881188118,0.5518173625713427,0.4343293207222699,0.5044927724964188,0.5755822727501384,0.4494150678521291,0.6036918707845226,0.611901681759379,0.4483153995413653,0.3509945832764349,0.2927810046594753
0.5851646172153908,0.5673267326732673,0.5539200961249624,0.4305137575236458,0.5056648001041802,0.578650837567282,0.4603649976602714,0.6138445154419596,0.619353169469599,0.4535632386664314,0.3574127179207064,0.3015893278866407
0.5889726299087664,0.5658613861386138,0.5487533793932111,0.4302450558899398,0.5143898945175153,0.5755319684088737,0.456621431913898,0.6134895278665247,0.6188874514877102,0.453166343270418,0.357230643179025,0.3024190974660113
0.5881792939309799,0.562059405940594,0.5435866626614599,0.4330932932072227,0.5193384555280636,0.5710045776950551,0.4386523163313055,0.6039048633297834,0.6132988357050452,0.4488445934027165,0.3516773635577404,0.296483053552052
0.597699325664419,0.567009900990099,0.5438870531691199,0.4264832330180567,0.5268915223336371,0.5742240555359928,0.4308844174075806,0.6054668086616969,0.615679172056921,0.4513141647556888,0.3535891483453957,0.2983340779983404
0.6038080126933757,0.5754851485148514,0.5521177530790027,0.4186371453138435,0.5228545383513478,0.5830776195985714,0.4438933083762283,0.6161164359247426,0.624424320827943,0.4575321926265654,0.3598252082479857,0.3067594306504116
0.6013486711622373,0.5807524752475247,0.5619705617302493,0.4158963886500429,0.5102226852454746,0.5905729664470044,0.4489471221338324,0.6181043663471778,0.62882276843467,0.4593402716528488,0.3620556238335837,0.3093763962468883
0.5906386354621184,0.5843168316831683,0.5754881345749474,0.4171324161650903,0.486782133090246,0.5984707480255546,0.4424894712213383,0.6102946396876109,0.6268046571798188,0.457796789557241,0.3602803951021894,0.3058658326418586
0.5900833002776676,0.5864950495049505,0.5792129768699309,0.4158426483233017,0.4823544732387029,0.6013883998189044,0.4308844174075806,0.6080937167199147,0.6260802069857697,0.4558123125771741,0.3576403113478082,0.3003127593029935
0.5986513288377628,0.5929504950495049,0.5824571943526585,0.4085339638865004,0.4857403307722359,0.6068715730167513,0.4203088441740757,0.6180333688320909,0.6337386804657179,0.4596048685835243,0.3608721380126541,0.303440352332929
0.6142800476001588,0.6058613861386137,0.5902673475518174,0.3945077386070507,0.4901679906237791,0.6183409628250918,0.4075807206364061,0.6269790557330494,0.6434670116429495,0.4689980596225083,0.3701579498384087,0.3144188421522946
0.6224514081713606,0.614019801980198,0.5963953139080805,0.3861779879621668,0.4902982159135303,0.626087831379848,0.3903603182030883,0.6202342917997871,0.644398447606727,0.4736285059093314,0.3744822249533434,0.3223335673709069
0.6107100357001191,0.6133069306930693,0.6042655452087714,0.3906384350816853,0.4720666753483526,0.6289551788319332,0.3726719700514739,0.5963081292154775,0.6293402328589909,0.4639266184512259,0.366835085802722,0.314674155869024
0.6023006743355812,0.613069306930693,0.6102132772604385,0.3937016337059329,0.4587836957937231,0.6312691785301071,0.3445016378100139,0.5701100461483847,0.6133505821474773,0.4528135473628505,0.3570030497519231,0.3042701219122997
0.6053153510511702,0.6156831683168316,0.6119555422048664,0.3908533963886501,0.4593045969527282,0.6336837869108104,0.3357042583060364,0.562087326943557,0.6065200517464424,0.4495501852178514,0.3547726341663252,0.305227548350035
0.6142007140023801,0.620039603960396,0.6117753079002703,0.3849419604471195,0.4668576637583018,0.6363499169978368,0.3463734206832007,0.567199148029819,0.6075549805950841,0.4515346621979185,0.359233465337521,0.3134614157145592
0.6061086870289568,0.6198019801980197,0.6176028837488736,0.3878439380911436,0.4538351347831749,0.6386136123547461,0.3537669630322882,0.5628682996095137,0.602535575679172,0.4467719174457575,0.3570940871227639,0.3128231314227356
0.5896866322887744,0.6087524752475247,0.6132772604385701,0.4008490971625107,0.4449798150800885,0.6298103526334322,0.3495554515676181,0.5458288959886404,0.5875808538163001,0.4346886576115716,0.3459420091947744,0.2999297887278994
0.5827052756842523,0.5993267326732672,0.6042655452087714,0.4096087704213241,0.4491470243521291,0.6200513104280899,0.3407580720636406,0.5351792687255945,0.5775937904269081,0.4260451578761686,0.3377941645045291,0.2903555243505457
0.5865132883776281,0.5978217821782178,0.5990387503754881,0.4093400687876182,0.4578721187654642,0.6169324412696816,0.3409452503509592,0.5370962016329429,0.5774385510996118,0.4268389486681954,0.3387045382129364,0.2939299163847577
0.6034113447044824,0.5991287128712871,0.5882847702012617,0.4027300085984522,0.483396275556713,0.613260224357362,0.3511464670098268,0.5478168264110757,0.5836481241914617,0.4337184688657611,0.3463061586781373,0.3065041169336822
0.6187227290757638,0.5994851485148515,0.5772303995193752,0.3973559759243336,0.5078786300299518,0.6088334423260727,0.3558259241927936,0.5559815406460773,0.5884605433376455,0.4393191038983947,0.3531339614911921,0.3163975234569477
0.6128520428401428,0.5983366336633663,0.5799339140883149,0.4000967325881341,0.5001953379346269,0.60923587705619,0.3575105287786616,0.5529996450124246,0.5861836998706338,0.4366731345916387,0.3504938777368109,0.3132061019978298
0.6038080126933757,0.5923168316831682,0.5776509462300992,0.4072441960447119,0.4952467769240786,0.6044569646360481,0.357604117922321,0.5463968761093362,0.5789391979301423,0.4299700123478567,0.3428012199007693,0.3022276121784643
0.5903213010710037,0.5863762376237623,0.578792430159207,0.4158426483233017,0.4828753743977079,0.6011871824538457,0.3719232569021993,0.552005679801207,0.5789909443725743,0.4267948491797494,0.3380672766170512,0.292015063509287
0.5761999206664024,0.5855049504950495,0.5882847702012617,0.4212166809974204,0.4609975257194947,0.604607877659842,0.4066448291998128,0.5733759318423854,0.5917205692108667,0.4346445581231257,0.3416632527652601,0.2925895193719282
0.5654105513685046,0.581069306930693,0.5896064884349654,0.4278804815133276,0.4507097278291443,0.6023441823029327,0.4314459522695367,0.5824636137735179,0.5999482535575679,0.439098606456165,0.3443033365196413,0.2934831173804812
0.5529551765172552,0.5695049504950495,0.5814959447281466,0.4399720550300945,0.4494074749316317,0.5915790532722973,0.4413664014974263,0.5833865814696486,0.5995342820181111,0.4368054330569764,0.3408894351131139,0.2844194804365864
0.5470844902816343,0.5583366336633663,0.5690597777110243,0.4495378331900257,0.4580023440552155,0.5792544896624578,0.4379036031820308,0.5809016684416045,0.5952393272962483,0.4315134944434644,0.3350630433793072,0.2746537307716857
0.551368504561682,0.5522772277227722,0.556623610693902,0.4521711092003439,0.4749316317228805,0.5701997082348206,0.4431445952269536,0.5853745118920838,0.5965847347994825,0.4312929970012347,0.3343802630980017,0.2721005936043913
0.5623958746529156,0.5519207920792079,0.5477320516671673,0.4486779879621667,0.4936840734470634,0.5662759696161779,0.4561534861956013,0.5956691515796947,0.6036222509702457,0.4364967366378549,0.3390686876962993,0.2777174953724389
0.5651725505751687,0.5509306930693069,0.5441874436767798,0.4484092863284609,0.499804662065373,0.5641631872830625,0.4664482919981282,0.6056088036918708,0.6104527813712807,0.4414799788322455,0.3436660749237561,0.2825046275611156
0.5537485124950418,0.5443564356435643,0.542805647341544,0.4567390369733448,0.4918609193905456,0.5593842748629206,0.4616752456715021,0.6012069577564785,0.6056403622250969,0.4374228258952195,0.337657608448268,0.2739516180506797
0.5409758032526776,0.5366336633663366,0.5407629918894563,0.466304815133276,0.4836567261362156,0.5536495799587504,0.4568086102012166,0.5966631167909123,0.6032600258732211,0.4328805785852884,0.3315125859165187,0.2630369566604965
0.5432764775882587,0.5344950495049504,0.535716431360769,0.4670034393809114,0.4909493423622867,0.5501785804114895,0.4670098268600842,0.6119985800496982,0.613816300129366,0.4386135120832598,0.3342437070417406,0.2607391332099317
0.5553351844506148,0.5365544554455445,0.5297686993091018,0.4614681857265693,0.5073577288709467,0.5490215805624025,0.4853532990173139,0.6386936457223997,0.63254851228978,0.4539601340624448,0.3458509718239337,0.2699942554413735
0.5612852042840143,0.5423762376237623,0.5340943226194053,0.4555567497850386,0.5076181794504492,0.5545047537602494,0.5030416471689284,0.6673056443024494,0.660025873221216,0.4762303757276415,0.3633301470253539,0.282376970702751
0.5571598571995241,0.5573861386138613,0.5599879843796935,0.4467433361994841,0.4761036593306419,0.5748780119724333,0.5080954609265325,0.6973375931842386,0.7019922380336351,0.5111571705768212,0.3944649278528836,0.3082913129507882
0.5669178897262991,0.5828514851485148,0.5912285971763293,0.4261607910576096,0.4503190519598906,0.6041551385884601,0.5016378100140383,0.7361732339368122,0.7652781371280724,0.5733815487740341,0.45386681232646,0.36924746281994
0.6126933756445856,0.6248316831683167,0.6202463202162811,0.3822012037833189,0.4564396405782002,0.6429397857035062,0.4718764623303696,0.7706070287539937,0.8418628719275548,0.6618892220850237,0.5445855523692475,0.4736707729622774
0.704799682665609,0.6925148514851486,0.6531691198558125,0.3050838349097162,0.4962885792420887,0.6996830826500327,0.3830603649976602,0.7733049343272985,0.8956791720569209,0.7810019403774916,0.6879238927579772,0.6418586838577902
0.7929393097976994,0.7824554455445544,0.7227996395313908,0.2142089423903697,0.4931631722880583,0.7859550279189094,0.2555919513336452,0.7041533546325879,0.86882276843467,0.8577791497618626,0.8100505257408166,0.802897810684879
0.8198333994446649,0.854059405940594,0.8111144487834185,0.1564918314703353,0.4194556582888397,0.8684541475929373,0.1386991109031352,0.5789847355342562,0.7507373868046571,0.8213970717939671,0.82170330920843,0.8581094019276185
0.7880206267354226,0.8527524752475248,0.8332231901471913,0.1681534823731728,0.3694491470243521,0.876854972584134,0.0833879270004678,0.4569400070997514,0.5689003880983182,0.6616246251543482,0.691519868906186,0.7614093317163465
0.6889329631098772,0.8203564356435642,0.8590567738059478,0.2237209802235597,0.2600599036332855,0.8670959303787917,0.0642021525503041,0.28604898828541,0.3328331177231565,0.3980860822014464,0.4453548181528517,0.5571583583328015
0.5571598571995241,0.79409900990099,0.9190747972364074,0.2861672398968186,0.0868602682640968,0.875547059711253,0.1113710809546092,0.1655662051828186,0.1528072445019404,0.1509525489504321,0.1847148254358414,0.3142911852939298
0.4859976199920667,0.6902970297029702,0.8155001501952538,0.3806964746345658,0.1407735382211224,0.7662357261431662,0.3086569957884885,0.3029463968761093,0.2042949547218628,0.11756923619686,0.0949519777868814,0.1598902151018063
0.4539468464894883,0.5783762376237623,0.6699909882847702,0.467487102321582,0.2721708555801536,0.6342371346647215,0.5134300421151146,0.5089811856585019,0.3488227684346701,0.2035191391779855,0.1348263462151213,0.1109338099189378
0.4483141610472035,0.539128712871287,0.6147191348753379,0.495969475494411,0.3275166037244432,0.5861964887569797,0.5937295273748245,0.6192403265885694,0.4426390685640361,0.2752690068795201,0.1868086849651781,0.1185932214208208
0.4710829036096787,0.5497029702970296,0.6135175728446981,0.4811371453138435,0.3474410730563875,0.5924342270737964,0.5708001871782873,0.6078097266595669,0.4788098318240621,0.318133709648968,0.2268651281350994,0.1552945682006765
0.5107497024990084,0.560079207920792,0.5992189846800842,0.4606620808254514,0.395494204974606,0.5929875748277076,0.5036967711745437,0.5937522186723465,0.5210349288486416,0.3636443817251719,0.2717465519595794,0.2067402821216569
0.5379611265370885,0.5635247524752475,0.5838389906878944,0.449054170249355,0.4345617918999869,0.588762010161477,0.4531586335985025,0.5865814696485623,0.5568434670116429,0.3955724113600281,0.3016523282807592,0.2414629475968596
0.5402618008726696,0.5572277227722772,0.5725443075998798,0.4525472914875322,0.448626123193124,0.5800090547814276,0.4430510060832943,0.5804756833510827,0.5724191461836997,0.4084935614746868,0.3121671446128636,0.2512925256909427
0.5405791352637843,0.5473663366336633,0.557344547912286,0.4591573516766982,0.4652949602812866,0.5674329694652648,0.447168928404305,0.5845935392261271,0.5821992238033635,0.4141823954842123,0.3156720833902317,0.2514201825493074
0.550654502181674,0.5433267326732673,0.5436467407629919,0.4585124677558039,0.4884750618570125,0.5590824488153328,0.4588675713617219,0.5987930422435215,0.5972056921086675,0.4234873875463044,0.3230461104283308,0.2554413735877959
0.5589845299484333,0.5448712871287128,0.5396815860618804,0.4545894239036973,0.4995442114858704,0.5584284923788922,0.4759943846513804,0.6105076322328717,0.6078654592496765,0.4318221908625859,0.3304201374664299,0.2628454713729495
0.5575565251884174,0.5426930693069306,0.5374586963051967,0.4565778159931212,0.5008464643833832,0.5561144926807183,0.4800187178287318,0.6139155129570465,0.6113842173350581,0.4343799611924501,0.3332878146479129,0.2658454075445203
0.5505751685838953,0.5369504950495049,0.5339140883148092,0.46286543422184,0.4988930850371141,0.550983449871724,0.4731867103416003,0.6056088036918708,0.6070375161707632,0.4307638031398835,0.3291456142746597,0.2593349077679198
0.5444664815549385,0.531049504950495,0.5295884650045058,0.468884350816853,0.4986326344576116,0.5454499723326123,0.4615816565278427,0.5968761093361732,0.5996895213454074,0.4245457752690068,0.3222267740907642,0.2509733835450309
0.54319714399048,0.5302178217821781,0.5294082306999099,0.4699054170249354,0.4977210574293527,0.5447960158961718,0.460832943378568,0.5963791267305644,0.5988615782664941,0.4241488798729934,0.3213619190677773,0.2494415012446543
0.5471638238794131,0.5345346534653466,0.5328927605887653,0.4656061908856406,0.4973303815600989,0.5490215805624025,0.4726251754796443,0.6037628682996095,0.6063130659767141,0.4300582113247485,0.3277800537120487,0.2574838833216314
0.5470051566838557,0.5357227722772276,0.5348152598377891,0.4649075666380051,0.494986326344576,0.5505810151416067,0.4776789892372484,0.6081647142350018,0.6104527813712807,0.434468160169342,0.3320588101415631,0.2627178145145847
0.5349464498214995,0.5314851485148514,0.5375187744067288,0.4718400687876182,0.4822242479489516,0.5490215805624025,0.4663547028544688,0.6012779552715656,0.6070375161707632,0.4312488975127888,0.329555282443443,0.2590795940511904
0.5303451011503373,0.5274455445544554,0.5348753379393211,0.4761392949269131,0.4813126709206927,0.545349363650083,0.4547496490407112,0.5907703230386937,0.5995860284605433,0.4250749691303581,0.3242295962492603,0.2519946384119487
0.5370884569615233,0.5299801980198019,0.5336737759086813,0.4721625107480653,0.4880843859877588,0.5464560591579053,0.4544688816097332,0.5899893503727369,0.5990168175937903,0.4261333568530605,0.3251399699576676,0.2533988638539605
0.5461324871082904,0.5373069306930692,0.5379393211174527,0.4641014617368873,0.4909493423622867,0.5528950148397807,0.4607393542349087,0.597373091941782,0.6056403622250969,0.4323513847239371,0.331922254085302,0.2633560988064083
0.5500991669972234,0.5406732673267326,0.5399819765695404,0.4605008598452279,0.4919911446802968,0.5558629709743951,0.4649508656995788,0.6026979055733049,0.6088486416558861,0.434468160169342,0.3343802630980017,0.2669943192698027
0.5453391511305038,0.5377821782178217,0.5392009612496246,0.4640477214101462,0.4888657377262664,0.5537501886412798,0.4581188582124473,0.594817181398651,0.6040879689521345,0.4298818133709648,0.3298739132413855,0.2623348439394906
0.5463704879016265,0.5361584158415841,0.5360168218684289,0.4648000859845228,0.4931631722880583,0.5513858846018411,0.448572765559195,0.5864394746183883,0.5983441138421733,0.4256923619686011,0.325686194182712,0.2580583391842727
0.5532725109083697,0.5395643564356435,0.5358966656653649,0.4601784178847807,0.4990233103268655,0.5534986669349565,0.4489471221338324,0.5876464323748668,0.5992238033635187,0.4266184512259657,0.3272793481724247,0.2598455352013787
0.5662832209440699,0.5465346534653465,0.5366176028837488,0.451042562338779,0.508920432347962,0.5582272750138337,0.4572765559195133,0.5967341143059992,0.6064165588615782,0.4326159816546127,0.334289225727161,0.2680155741367204
0.568345894486315,0.5484752475247524,0.5379993992189847,0.4490004299226139,0.5091808829274646,0.5600382312993611,0.4624239588207767,0.5987220447284345,0.6089521345407503,0.4358352443111659,0.3368837907961218,0.2707601965915618
0.558111860372868,0.5447524752475247,0.5401021327726043,0.4550193465176267,0.4985024091678603,0.5585291010614216,0.4533458118858212,0.58991835285765,0.6028460543337645,0.4305874051860998,0.3318767353998816,0.2640582115274143
0.5525585085283619,0.5412277227722772,0.5389606488434965,0.4592648323301805,0.4951165516343274,0.5558126666331304,0.4400561534861955,0.5791977280795172,0.5950840879689521,0.4240606808961015,0.3255496381264509,0.2563988000255313
0.5554145180483936,0.5432079207920791,0.5398017422649444,0.4569539982803096,0.4965490298215912,0.5574224055535992,0.4373420683200749,0.5791977280795172,0.5951358344113841,0.4252513670841417,0.32668760526196,0.2574200548924491
0.5618405394684649,0.5489504950495049,0.5436467407629919,0.4508813413585554,0.4977210574293527,0.562654057045123,0.4490407112774917,0.5877174298899539,0.6021216041397154,0.4306756041629916,0.33292366516455,0.2669943192698027
0.5617612058706863,0.5481980198019801,0.542565334935416,0.4514187446259673,0.4987628597473629,0.5617485789023593,0.4505381375760411,0.5921192758253461,0.6055368693402329,0.4338948668195448,0.3372479402794847,0.2715261377417501
0.554145180483935,0.5436039603960395,0.5414238510063082,0.4571152192605331,0.4938142987368146,0.558327883696363,0.4381843706130088,0.5860844870429535,0.6005692108667529,0.4305874051860998,0.3341526696708999,0.2669304908406204
0.5447044823482745,0.539128712871287,0.5417242415139681,0.4633490971625107,0.4856101054824847,0.5556617536093365,0.4282639213851192,0.5739439119630814,0.5916170763260026,0.4235314870347503,0.3271427921161636,0.2589519371928256
0.547401824672749,0.541029702970297,0.542565334935416,0.461145743766122,0.4869123583799973,0.5572211881885406,0.4291062236780533,0.5738729144479943,0.591927554980595,0.42375198447698,0.3278255723974691,0.2609944469266611
0.5574771915906387,0.5479603960396039,0.5454490838089516,0.4530309544282029,0.4921213699700481,0.5628049700689169,0.4370613008890968,0.5823216187433441,0.598188874514877,0.4309402010936672,0.3341071509854795,0.2709516818791089
0.5588258627528759,0.5504158415841583,0.5482126764794232,0.4509350816852966,0.4902982159135303,0.5655214044972081,0.4361254094525034,0.5838835640752574,0.5996377749029753,0.4333215734697477,0.3363830852564977,0.2748452160592328
0.5504958349861167,0.5466534653465346,0.5487533793932111,0.4563091143594152,0.4828753743977079,0.5633583178228281,0.4204960224613944,0.5729499467518637,0.5924967658473479,0.4279414358793437,0.3314670672310983,0.2678879172783557
0.5432764775882587,0.5423366336633663,0.5476719735656352,0.4616831470335339,0.478057038676911,0.560189144323155,0.4062704726251754,0.5623003194888179,0.586287192755498,0.423090492150291,0.3271427921161636,0.2621433586519435
0.5492264974216582,0.5447920792079207,0.5468308801441873,0.457975064488392,0.4837869514259668,0.561346144172242,0.4057089377632194,0.564501242456514,0.5877360931435963,0.4255600635032632,0.3296918384997041,0.2646326673900555
0.5605712019040063,0.5502970297029702,0.5466506458395914,0.4503976784178847,0.4932933975778095,0.564817143719503,0.4130088909686475,0.5735179268725594,0.5947218628719275,0.4322190862585993,0.3373389776503254,0.2742707601965915
0.5640618802062675,0.5519999999999999,0.5465905677380595,0.4480868443680137,0.4962885792420887,0.565823230544796,0.4146934955545156,0.5769258075967341,0.5982406209573091,0.4368936320338683,0.3421639583048841,0.2800791472521861
0.5572391907973028,0.5472475247524752,0.5444878341844398,0.4535683576956147,0.4930329469983071,0.5619497962674179,0.4029948525970986,0.5687610933617324,0.5928589909443726,0.4332774739813017,0.3392962811234011,0.2761217846428799
0.5526378421261405,0.544118811881188,0.5432261940522679,0.4572764402407566,0.4905586664930328,0.5594345792041854,0.3910154422087037,0.5603123890663827,0.588150064683053,0.4297495149056271,0.3370658655378032,0.273823961192315
0.5606505355017851,0.5475643564356435,0.542445178732352,0.4522248495270851,0.4979815080088552,0.5612958398309774,0.3900795507721104,0.5637202697905572,0.5922380336351876,0.4340271652848826,0.3414356593381583,0.2799514903938214
0.575327251090837,0.5543762376237623,0.5416641634124362,0.4426053310404128,0.510873811694231,0.5653201871321495,0.3974730931211979,0.5745118920837771,0.602535575679172,0.4448315399541364,0.3516318448723201,0.2927810046594753
0.5788972629908767,0.5573465346534653,0.5434665064583959,0.4394346517626827,0.5117853887224898,0.5679360128779113,0.3972859148338792,0.5792687255946042,0.608175937904269,0.4510054683365672,0.3575492739769675,0.301461671028276
0.5711225704085681,0.553029702970297,0.542805647341544,0.4449699054170249,0.5061857012631853,0.5649177524020323,0.3806270472625175,0.5707490237841676,0.6038809831824061,0.4486240959604868,0.3560471573580955,0.298972362290164
