Lead I,Lead II,Lead III,aVR,aVL,aVF,V1,V2,V3,V4,V5,V6
0.43800079333597786,0.37497029702970297,0.3735055572243917,0.6108662940670678,0.5804141164214089,0.38095477639720304,0.6117922321010762,0.7817536386226482,0.7584476067270375,0.59088904568707,0.4879603077063134,0.40256590285313076
0.49639032130107114,0.41992079207920785,0.39747671973565635,0.5606190885640585,0.6022919650996224,0.4195382061471905,0.5499298081422554,0.7904153354632588,0.8195601552393271,0.6903333921326512,0.5994810869862078,0.5295844769260227
0.5880206267354225,0.497980198019802,0.4464403724842295,0.4765692175408427,0.6244302643573382,0.4896121535288495,0.4436125409452503,0.7330493432729855,0.8345666235446312,0.7982889398482977,0.7449588055896945,0.7054317993234186
0.6494248314161047,0.5799603960396039,0.5243616701712226,0.4001504729148753,0.5904414637322568,0.5742743598772574,0.3452503509592887,0.6279020234291799,0.7740232858990943,0.8333480331628151,0.8288497428194274,0.8315567753877576
0.6422054740182468,0.6169504950495049,0.5859417242415139,0.3775257953568358,0.5177757520510482,0.6235726143166155,0.26382779597566675,0.48576499822506214,0.6042432082794307,0.722526018698183,0.7602530838909372,0.8044935214144379
0.5727885759619199,0.5793267326732673,0.5814358666266146,0.4265369733447979,0.46568563615054037,0.5978167915891142,0.2082358446420215,0.321405750798722,0.34985769728331173,0.4681160698535896,0.5317037643952842,0.6127529201506351
0.41420071400238007,0.5603564356435643,0.6726945028537098,0.49312123817712816,0.23661935147805704,0.6239247447054681,0.1826860084230229,0.1086261980830671,0.08631306597671407,0.17432527782677715,0.2476671673722063,0.36656666879428096
0.2964696548988497,0.5104554455445544,0.6862120756984079,0.5669067067927773,0.12527672874072135,0.5979174002716434,0.3068788020589611,0.11686190983315584,0.02887451487710217,0.04701005468336564,0.07861076972097043,0.1724644156507308
0.25545418484728283,0.4126336633663366,0.5688795434064283,0.647141014617369,0.21890871207188428,0.4866945017354997,0.5306504445484324,0.33248136315228966,0.16589909443725745,0.11117481037219963,0.08548409121944556,0.09861492308674283
0.24450614835382786,0.33849504950495046,0.4647641934514869,0.7011500429922614,0.32269826800364626,0.3959957744353338,0.6633598502573701,0.5308484203052893,0.31254851228978003,0.21330922561298285,0.1533979698666302,0.10052977596221355
0.2452994843316145,0.316,0.42997897266446383,0.7161435941530524,0.3611147284802709,0.367121082549424,0.6583060364997659,0.5684771033013845,0.3790426908150064,0.2709472570118186,0.20014565979334514,0.12242292717176227
0.2840142800476002,0.32360396039603956,0.41213577650946226,0.697871883061049,0.41216304206276855,0.36450525680366214,0.5807206364061769,0.5552715654952076,0.4315653298835705,0.3187511024872111,0.2442077472802585,0.16729431288695984
0.3313764379214598,0.33350495049504947,0.3913487533793932,0.6750859845227859,0.4736293788253678,0.3620906484229589,0.531118390266729,0.5597444089456869,0.48346701164294953,0.36377668019050974,0.28540215758568893,0.21337843875662216
0.3550971836572789,0.3335445544554455,0.37344547912285975,0.6670786758383491,0.5124365151712461,0.35459530157452585,0.5367337388862892,0.5735179268725594,0.5179818887451487,0.39019227376962423,0.3091629113751195,0.23929278100465945
0.3614438714795717,0.32487128712871277,0.35548212676479424,0.670786758383491,0.5370490949342361,0.34161678152824587,0.555357978474497,0.5893503727369541,0.5378007761966364,0.40240783206914793,0.31831216714461286,0.24484585434352457
0.3580325267750893,0.3141386138613861,0.3417843196155001,0.6792239896818573,0.5491600468811043,0.3290406962120831,0.5644361254094525,0.6014909478168264,0.5495472186287191,0.40897865584759213,0.32136191906777734,0.24318631518478326
0.36207854026180086,0.30760396039603954,0.3288074496845899,0.6822871883061049,0.5666102357077745,0.3194828713717994,0.5716424894712213,0.6088036918707844,0.5567917205692109,0.41307990827306396,0.32391096545131776,0.24222888874704793
0.37048790162633877,0.30906930693069307,0.32466206067888254,0.6784178847807395,0.5779398359161348,0.318678001911565,0.5879270004679457,0.6212282570110047,0.5676584734799482,0.42053272182042684,0.33101188037689466,0.2496329865322014
0.37834192780642606,0.3124752475247524,0.32388104535896667,0.6734737747205503,0.585232452142206,0.3204889581970924,0.6007487131492746,0.633013844515442,0.575679172056921,0.42736814252954664,0.3385224634712549,0.25818599604263737
0.37580325267750897,0.3088316831683168,0.3202763592670472,0.6768056749785039,0.5870556061987238,0.31666582826097894,0.5969115582592419,0.6301739439119631,0.5746442432082793,0.42785323690245186,0.3373844963357458,0.2570370843173549
0.36779055930186433,0.3034851485148515,0.3182337038149594,0.6831470335339639,0.5826279463471806,0.3124402635947482,0.583809078146935,0.6181753638622648,0.5684346701164295,0.42203210442758854,0.33042013746642995,0.24905853066956019
0.37032923443078153,0.3032079207920792,0.31589065785521175,0.6824484092863284,0.5873160567782263,0.31128326374566123,0.5808142255498362,0.6168974085906993,0.5680206985769728,0.42150291056623734,0.3293276890163412,0.24733516308163656
0.3797699325664419,0.3072079207920792,0.31480925202763593,0.6765369733447979,0.596301601771064,0.31334574173751195,0.5934487599438465,0.6285410010649627,0.5766623544631305,0.42869112718292457,0.3364741226273385,0.2571009127465373
0.3857199523998414,0.31199999999999994,0.31757284469810754,0.6712704213241616,0.5981247558275817,0.31757130640374265,0.6049602246139447,0.6368477103301384,0.5830789133247088,0.4342035632386663,0.34266466384450817,0.2636114125231378
0.38143593811979376,0.3114455445544554,0.3199759687593872,0.673097592433362,0.592004167209272,0.31817495849891847,0.5981282171268133,0.6313099041533546,0.5797153945666235,0.4309843005821132,0.3398425053484455,0.2583774813301844
0.3704085680285601,0.30906930693069307,0.32472213878041456,0.6784716251074806,0.5778096106263836,0.318678001911565,0.5851193261581656,0.6193823216187433,0.5717464424320827,0.42450167578056086,0.3332422959624926,0.24810110423182483
0.3700912336374455,0.3078415841584158,0.3230399519375188,0.679438950988822,0.5793723141033988,0.3171688716736254,0.5820308844174076,0.6167554135605254,0.5708150064683052,0.42304639266184507,0.3316491419727798,0.2466330503606306
0.3785799285997621,0.3111287128712871,0.321658155602283,0.674279879621668,0.5878369579372313,0.3187283062528296,0.5919513336452972,0.6257720979765709,0.5779560155239327,0.42899982360204614,0.3379307205607902,0.25550520201697835
0.3857199523998414,0.3167524752475247,0.32478221688194653,0.6680460017196904,0.5903112384425054,0.32360782735550075,0.602526906878802,0.6340078097266596,0.58509702457956,0.43552654789204437,0.34425781783422094,0.265079466394332
0.3815946053153511,0.31508910891089104,0.32538299789726643,0.6705717970765263,0.5862742544602162,0.32280295789526636,0.5962564342536266,0.627973020944267,0.5811642949547218,0.4327923796083965,0.34152669670899904,0.2590795940511904
0.3794525981753273,0.3125544554455445,0.32316010814058277,0.6730438521066209,0.5869253809089725,0.32023743649076913,0.5814693495554516,0.6156194533191338,0.5725226390685639,0.4260892573646145,0.3348354499522054,0.24956915810301905
0.38270527568425233,0.31378217821782173,0.3225593271252628,0.6711092003439381,0.5901810131527542,0.3207907842446803,0.5774450163781001,0.6133475328363508,0.5716429495472185,0.4255159640148174,0.3340161136146388,0.24918618752792493
0.3934153113843713,0.3195643564356435,0.32322018624211474,0.6635318142734308,0.5983852064070843,0.32471452286332314,0.5892372484791764,0.6228611998580049,0.5798706338939198,0.4323072852354912,0.34052528562975104,0.25620731473798425
0.40388734629115436,0.32384158415841585,0.32177831180534694,0.6570829750644884,0.608412553717932,0.32682730519643843,0.5956948993916705,0.6301739439119631,0.5865976714100904,0.43786382077967884,0.3470344576448632,0.2653347801110615
0.39103530345101156,0.31960396039603955,0.3251426854911385,0.6643379191745485,0.5942179971350435,0.32556969666482216,0.5879270004679457,0.6245651402200922,0.581940491591203,0.4354383489151525,0.3442122991488006,0.2618880449352141
0.3767552558508529,0.3122376237623762,0.32472213878041456,0.6741723989681857,0.5830186222164344,0.320690175562151,0.5706130088909687,0.6109336173233937,0.5705562742561447,0.42732404304110067,0.33456233783968314,0.2503989276823897
0.375089250297501,0.31049504950495044,0.32334034244517873,0.6758920894239037,0.5831488475061856,0.31903013230041755,0.5645297145531117,0.6068867589634362,0.5672962483829237,0.4252072675956958,0.3331967772770722,0.25001595710729557
0.3850852836176121,0.31465346534653466,0.32213878041453886,0.6697119518486672,0.5926552936580283,0.32114291463353284,0.5753860552175948,0.6165424210152645,0.5768175937904269,0.4321749867701534,0.3413446219673175,0.2616327312184847
0.39746132487108293,0.3192475247524752,0.31961550015019524,0.6624032674118658,0.605547597343404,0.32300417526032493,0.5829667758540009,0.6247781327653532,0.5832858990944373,0.4382166166872464,0.3473075697573854,0.27095168187910895
0.3983339944466482,0.31782178217821777,0.31685190747972364,0.6630481513327601,0.6091939054564396,0.32094169726847427,0.574918109499298,0.6210152644657436,0.5803880983182406,0.4369818310107602,0.34630615867813735,0.2692921427203676
0.39182863942879814,0.3122772277227722,0.31336737759086813,0.6690133276010318,0.6077614272691756,0.3159615674832738,0.5608797379503977,0.6103656372026979,0.5726778783958603,0.4305433056976538,0.3403887295734899,0.26105827535584347
0.3938913129710433,0.3118019801980198,0.31108440973265244,0.6686371453138436,0.6119286365412163,0.31470395895165754,0.5556387459054749,0.6065317713880014,0.5702457956015523,0.4293526195096137,0.3397059492921844,0.2602923342056552
0.40333201110670375,0.3166732673267326,0.3112646440372484,0.6621345657781599,0.61948170334679,0.31787313245133053,0.5647168928404305,0.6155484558040469,0.576921086675291,0.43486505556535543,0.3455323410259911,0.26776026041999107
0.40833002776675925,0.3193663366336634,0.3116251126464404,0.6586414445399827,0.6231280114598254,0.3197343930781227,0.5755732335049134,0.6243521476748314,0.5828719275549805,0.4396718998059622,0.3509490645910146,0.2742069317674092
0.4019040063466879,0.3151683168316831,0.31012316010814056,0.6636930352536543,0.61948170334679,0.3164646108959203,0.5728591483387927,0.6206602768903088,0.5815265200517463,0.4382166166872464,0.3489007237470982,0.27114316716665604
0.3891312971043237,0.3086336633663366,0.30988284770201263,0.6724527085124677,0.6091939054564396,0.31218874188842494,0.557323350491343,0.6084487042953496,0.5736093143596377,0.4328364790968424,0.3428467385861896,0.26201570179357886
0.393256644188814,0.31215841584158416,0.31204565935716433,0.6686371453138436,0.6102357077744497,0.315357915388098,0.5517080018717828,0.6065317713880014,0.571953428201811,0.43168989239724814,0.34225499567572487,0.26093061849747873
0.41769139230464103,0.321980198019802,0.30856112946830877,0.6536973344797936,0.6341971610886833,0.3200865234669752,0.5568554047730463,0.6143414980475684,0.5793531694695989,0.4379961192450167,0.34876416769083707,0.2691006574328206
0.41919873066243557,0.32479207920792075,0.3116251126464404,0.6512790197764402,0.6319833311629118,0.32320539262538356,0.5626579316799252,0.6213702520411785,0.5861319534282018,0.4450079379079202,0.3549091902225864,0.2773345247973447
0.4162633875446252,0.3227326732673267,0.31072394112346047,0.6536973344797936,0.6305508529756478,0.3214950450223854,0.5589143659335517,0.6200922967696131,0.5863906856403621,0.445184335861704,0.3557285265601529,0.2790578923852684
0.4131693772312575,0.3187326732673267,0.30699909882847704,0.6574054170249355,0.6321135564526631,0.317370089038684,0.5471221338324754,0.6122825701100462,0.5804398447606727,0.4406420885517727,0.35167736355774043,0.27318567690049145
0.41547005156683864,0.31960396039603955,0.30651847401622107,0.6560619088564059,0.6345878369579372,0.3177222194275366,0.5390734674777725,0.6083067092651756,0.5779560155239327,0.4402010936673134,0.3509035459055942,0.2696751132954618
0.4289567631892107,0.3275247524752475,0.3083808951637128,0.6461199484092863,0.6435733819507748,0.3235575230142361,0.5451567618156293,0.6190983315583954,0.5877878395860283,0.4507849708943376,0.36037143247303016,0.281483372694198
0.4409361364537882,0.3325544554455445,0.306939020726945,0.6386500429922614,0.6549029821591352,0.3261230444187333,0.5519887693027609,0.6283990060347887,0.5978266494178525,0.4603986593755512,0.3697482816696253,0.2956532839726814
0.4434748115827053,0.3306138613861386,0.3021327726043857,0.6390799656061908,0.6623258236749576,0.3229035665777957,0.5468413664014974,0.6290379836705715,0.6001034928848641,0.46282413124007754,0.37338977650325456,0.2994191612944405
0.43800079333597786,0.3256633663366336,0.2986482427155302,0.6443465176268273,0.6615444719364499,0.3182755671814477,0.531118390266729,0.6222222222222222,0.5959120310478654,0.4604868583524431,0.3709317674905549,0.2955256271143167
0.4518048393494646,0.3294653465346534,0.2939621507960348,0.6370915735167669,0.67795285844511,0.3187786105940943,0.5216658867571362,0.6230031948881789,0.5987580853816299,0.4649409066854823,0.3747553370658655,0.29916384757771114
0.46418088060293544,0.3356039603960395,0.2939621507960348,0.6287080825451419,0.688110431045709,0.32265204487147237,0.527468413664015,0.6366347177848775,0.6113842173350581,0.47715646498500613,0.38745505029814736,0.3137167294312887
0.47028956763189217,0.33801980198019804,0.293000901171523,0.625,0.6941007943742674,0.3238090447205594,0.5312119794103883,0.6470003549875754,0.6227166882276842,0.4879608396542599,0.40029131958669034,0.330184464160337
0.4711622372074574,0.3359207920792079,0.2891559026734755,0.6261285468615649,0.6990493553848156,0.32084108858594496,0.5209171736078615,0.6490592829250976,0.6260802069857697,0.49334097724466386,0.4068004916018025,0.3384821599540435
0.4656882189607299,0.32962376237623764,0.28380895163712827,0.6322549441100602,0.7003516082823285,0.3146033502691282,0.5022929340196537,0.6418175363862264,0.6244760672703751,0.4943552654789204,0.4071646410851655,0.33880130209995535
0.47044823482744946,0.33334653465346537,0.285791528987684,0.6281169389509889,0.702044537049095,0.3177725237688012,0.4928404305100608,0.6435924742634008,0.6302199223803363,0.4996913035808784,0.41189858436888344,0.3430139784259909
0.4827449424831417,0.342059405940594,0.2897566836887954,0.618067497850387,0.707904675087902,0.3249660445696464,0.4958352831071595,0.6576499822506212,0.6439844760672703,0.5119068618804021,0.4245527789157449,0.36024765430522754
0.4959143197143991,0.34875247524752473,0.2898768398918594,0.6090391229578676,0.7185831488475061,0.32929221791840635,0.501263453439401,0.6724884629037983,0.6582147477360931,0.5261950961368848,0.4393918703627839,0.37684304589264056
0.49662832209440705,0.3470891089108911,0.2868128567137278,0.6098989681857265,0.7224899075400443,0.32697821822023243,0.4904071127749181,0.6753993610223642,0.6641655886157826,0.532765919915329,0.44731212162592743,0.3846939426820705
0.4905196350654503,0.3443960396039603,0.28735355962751574,0.6138220120378332,0.7168902200807397,0.32546908798229285,0.47496490407112774,0.6744763933262335,0.6664424320827942,0.5363379784794495,0.4506805043470345,0.3913320993170358
0.49662832209440705,0.34784158415841576,0.28795434064283565,0.6094153052450558,0.7211876546425315,0.32793400070426076,0.46785212915301827,0.6807951721689741,0.6727554980595084,0.5428647027694479,0.4575538258455095,0.4016723048445778
0.5111463704879017,0.3542970297029702,0.28669270051066387,0.6001182287188306,0.7346008594869122,0.3314553045927864,0.4706598034627983,0.6957046503372382,0.6862095730918499,0.5550802610689716,0.46984387090900814,0.4171826131358907
0.5231257437524792,0.36015841584158415,0.2865725443075999,0.5921109200343938,0.7444979815080088,0.33517782584637057,0.47243799719232565,0.7068512602058927,0.6970763260025873,0.5658405362497794,0.4813145796349402,0.4317354949894682
0.5207457358191195,0.3616237623762376,0.29053769900871135,0.5918959587274291,0.7382471675999478,0.33774334725086774,0.4613008890968647,0.7072062477813276,0.6998706338939198,0.5689275004409948,0.4846374436706267,0.43639497031978036
0.5133677112257041,0.36134653465346533,0.29570441574046263,0.5945829750644883,0.7266571168120849,0.33970521656018915,0.4479176415535797,0.7023784167554136,0.6978007761966364,0.5679132122067383,0.4836360325913787,0.4340971468692155
0.5219357397857993,0.3672871287128712,0.2982877741063382,0.5876504729148754,0.7308243260841255,0.3445847376628603,0.4422087037903603,0.7033723819666311,0.701267787839586,0.570162286117481,0.4867313031999636,0.4382459947660688
0.5260610868702896,0.3748514851485148,0.3065785521177531,0.5810941530524506,0.7252246386248209,0.35288495397152775,0.4527842770238652,0.7158679446219383,0.7112548512289779,0.5789380843182218,0.4959715963402977,0.4517137933235463
0.5238397461324872,0.3795643564356435,0.3154701111444878,0.5786758383490972,0.7137648131267091,0.3595754313597263,0.4668226485727655,0.7294994675186368,0.7192755498059508,0.5833921326512612,0.500751058309436,0.457713665666688
0.5162237207457359,0.37865346534653466,0.3198558125563232,0.5818465176268272,0.7026956634978513,0.3608330398913426,0.46719700514740287,0.7277955271565495,0.716946959896507,0.5789380843182218,0.49569848422777546,0.4505648815982638
0.49250297500991674,0.3728316831683168,0.32904776209071795,0.5938306104901118,0.6733949733038155,0.3609839529151366,0.4649508656995788,0.7145899893503727,0.7066494178525226,0.5672958193684953,0.4825891028267103,0.43511840173613325
0.48068226894089655,0.37374257425742574,0.3393211174526885,0.5972699914015477,0.6525589269436124,0.3658634740178077,0.4757136172204024,0.7106851260205892,0.699404915912031,0.5583436232139706,0.4713004688424598,0.42177826003702046
0.4842522808409362,0.37734653465346535,0.34202463202162814,0.5935619088564058,0.6524287016538611,0.369284169223804,0.4987365465605989,0.7145899893503727,0.6975937904269081,0.5512436055741753,0.4641085165460421,0.41437416225186696
0.4675128917096391,0.37164356435643564,0.34610994292580355,0.6031276870163371,0.6343273863784347,0.3673726042557473,0.5190453907346747,0.7101171458998935,0.6897800776196635,0.5411448227200564,0.4535026628430971,0.40199144699048955
0.4487108290360968,0.36423762376237623,0.34911384800240314,0.6145206362854686,0.615705169944003,0.3639016047084863,0.520542817033224,0.6936457223997161,0.6723932729624837,0.5231522314341153,0.43438481496654374,0.37780047233037595
0.4329234430781437,0.3563564356435643,0.34911384800240314,0.6252149613069646,0.6026826409688761,0.35892147492328585,0.5179223210107627,0.6731984380546682,0.650659767141009,0.502028576468513,0.41171650962720197,0.34863088019403843
0.4262594208647363,0.35425742574257424,0.3509762691498949,0.6289230438521066,0.5952597994530537,0.3583681271693747,0.5264389330837622,0.6593539226127085,0.6352393272962483,0.48712294937378725,0.39633119395511857,0.3309504053105253
0.4269734232447442,0.3565940594059406,0.35404025232802644,0.6270958727429062,0.5925250683682771,0.3611348659389305,0.5408516612072999,0.6564430244941427,0.628150064683053,0.4805080261068971,0.38973098456916566,0.3239931065296483
0.42157873859579537,0.35477227722772275,0.35524181435866625,0.6301053310404127,0.5867951556192212,0.36048090950249007,0.5524567150210575,0.6523251686190983,0.6209573091849935,0.47323161051331797,0.38303973781237194,0.3163336950277653
0.40952003173343915,0.34538613861386136,0.35019525382997896,0.6405846947549442,0.5822372704779267,0.35243221490014587,0.5510528778661674,0.6391196308129216,0.6069340232858991,0.46070735579467276,0.3704765806363512,0.30120635731154655
0.39063863546211824,0.3346138613861386,0.34815259837789125,0.6542884780739467,0.5690845162130486,0.3446853463453896,0.5416003743565746,0.6218672346467873,0.5914618369987062,0.44730111130710876,0.3559106013018344,0.28486627944086296
0.3847679492264975,0.3318811881188118,0.34845298888555126,0.6581577815993122,0.5638755046229977,0.34307560742492077,0.5430042115114646,0.6150514731984381,0.584476067270375,0.4407743870171105,0.34999317219718695,0.2793132061019978
0.39611265370884574,0.3361188118811881,0.3462901772303995,0.6514402407566637,0.5754655554108606,0.3448865637104482,0.5557323350491342,0.6200212992545261,0.5877360931435963,0.44315575939319096,0.35381674177249756,0.2861428480245101
0.40023800079333605,0.3358415841584158,0.342805647341544,0.6502042132416165,0.5826279463471806,0.3432768247899794,0.5675245671502106,0.6257011004614839,0.5895472186287193,0.4456253307461633,0.35622923209977697,0.29092998021318695
0.3907179690598969,0.32926732673267317,0.3399819765695404,0.6578890799656062,0.5779398359161348,0.3378942602746617,0.5672437997192326,0.6205892793752219,0.5839586028460543,0.43998059622508373,0.35049387773681095,0.2845471372949512
0.3759619198730663,0.3229702970297029,0.3416040853109042,0.6671324161650903,0.564005729912749,0.3345741737511947,0.5547028544688816,0.61008164714235,0.575627425614489,0.43146939495501846,0.3428012199007693,0.2742707601965915
0.3809599365331218,0.3271287128712871,0.34412736557524787,0.6626182287188306,0.565438208100013,0.3382966950047789,0.5497426298549368,0.6072417465388711,0.5730918499353169,0.429088022578938,0.3415722153944194,0.2723559073211208
0.3888932963109878,0.33287128712871283,0.34683088014418745,0.6560619088564059,0.5689542909232973,0.34302530308365614,0.5601310248011231,0.6154774582889598,0.5791979301423027,0.4334538719350855,0.3454868223405708,0.2778451522308036
0.393256644188814,0.3356435643564356,0.3477320516671673,0.6527300085984523,0.5715587967183227,0.3451883897580361,0.5701450631726719,0.6224352147674832,0.5840103492884863,0.4385694125948138,0.34953798534298325,0.2812918874066509
0.3863546211820707,0.3317227722772277,0.3470111144487834,0.6576741186586414,0.5667404609975257,0.34237134664721564,0.5636874122601778,0.6178913738019169,0.5796119016817592,0.4346004586346798,0.3454413036551504,0.27644092678879173
0.37358191193970647,0.3257425742574257,0.34761189546410337,0.6661113499570077,0.5555410860789165,0.3388500427586901,0.5541413196069255,0.6073837415690451,0.5716429495472185,0.4266184512259657,0.3374755337065865,0.2664836918363439
0.37723125743752484,0.32978217821782174,0.3509762691498949,0.6620808254514188,0.5550201849199115,0.3428240857185975,0.5507721104351895,0.605040823571175,0.571280724450194,0.42525136708414174,0.3357458236606126,0.26067530478074935
0.38651328837762794,0.3374257425742574,0.35548212676479424,0.653804815133276,0.5576246907149367,0.34956486744806076,0.5605053813757603,0.6133475328363508,0.578835705045278,0.43261598165461274,0.34293777595703034,0.2698665985830089
0.3909559698532329,0.33528712871287125,0.3489336136978071,0.6537510748065348,0.5684333897642923,0.3454399114643594,0.5722976134768366,0.6243521476748314,0.5852005174644243,0.4384812136179219,0.34926487323046107,0.2779089806599859
0.38873462911543044,0.3261386138613861,0.33673775908681286,0.6606835769561479,0.5797629899726526,0.33452386940993006,0.5684604585868038,0.6196663116790911,0.5812160413971539,0.4360998412418415,0.34616960262187624,0.27567498563860343
0.3809599365331218,0.3215049504950495,0.335656353259237,0.6664337919174548,0.5746842036723531,0.33115347854519844,0.5575105287786616,0.6120695775647852,0.5761966364812419,0.43221908625859934,0.34225499567572487,0.27222825046275606
0.38738595795319325,0.3246336633663366,0.33541604085310905,0.6621883061049011,0.5801536658419064,0.33301473917199054,0.5574169396350023,0.6139155129570465,0.5788874514877101,0.4349973540306932,0.34607856525103553,0.2767600689347035
0.40150733835779456,0.33029702970297026,0.33337338540102135,0.6535361134995701,0.5939575465555411,0.33578147794154634,0.5711745437529246,0.6249201277955272,0.5884605433376455,0.442450167578056,0.35386226045791797,0.28697261760388076
0.40198333994446656,0.3308118811881188,0.33385401021327726,0.6529987102321582,0.5938273212657897,0.33628452135419284,0.5812821712681329,0.6347887823926163,0.5967399741267787,0.4486240959604868,0.3605079885292913,0.2950149996808578
0.3992859976199921,0.3266138613861386,0.3294082306999099,0.6568142734307825,0.5964318270608152,0.3318074349816389,0.5738886289190454,0.6314518991835285,0.5932212160413971,0.44641912153819013,0.3579134234603304,0.29054700963809277
0.3981753272510909,0.32598019801980194,0.3293481525983779,0.6575666380051591,0.5956504753223075,0.331354695910257,0.5606925596630791,0.625133120340788,0.5886157826649417,0.44311165990474505,0.35427192862670126,0.28390885300312757
0.3957953193177311,0.3252673267326732,0.3300090117152298,0.6588564058469476,0.5929157442375309,0.33120378288646307,0.5594759007955077,0.6249201277955272,0.5898059508408796,0.4440377491621097,0.35468159679548455,0.2833343971404863
0.4123760412534709,0.3342970297029703,0.33115049564433763,0.647141014617369,0.6052871467639015,0.3373912168620152,0.5755732335049134,0.6384096556620518,0.6000517464424321,0.4530340448050802,0.36360325913787606,0.2961639114061403
0.41808806029353435,0.33790099009900987,0.3322919795734455,0.6427880481513327,0.6086730042974344,0.340157955631571,0.5810949929808141,0.6440184593539225,0.6044501940491591,0.45682660081143056,0.36624334289225724,0.2990361907193464
0.40753669178897267,0.3354059405940594,0.3365575247822169,0.648054600171969,0.595390024742805,0.3403591729966296,0.5727655591951333,0.6378416755413561,0.5991203104786545,0.4520638560592697,0.36123628749601705,0.29054700963809277
0.40721935739785803,0.33069306930693065,0.3296485431060378,0.6513327601031814,0.6026826409688761,0.33447356506866543,0.5616284510996724,0.6289669861554846,0.5929107373868046,0.44708061386487913,0.3574582366061268,0.2837811961447628
0.4152320507735026,0.33350495049504947,0.3278462000600781,0.6467110920034393,0.6111472848027086,0.3355299562352231,0.5623771642489471,0.6309549165779197,0.5957567917205691,0.4502998765214323,0.36078110064181346,0.2878023871832514
0.4172153907179691,0.33750495049504947,0.33241213577650947,0.6433254514187446,0.6078916525589269,0.3399567382665124,0.576321946654188,0.6425985090521832,0.6038292367399741,0.4574439936496736,0.36683508580272206,0.29705750941469333
0.42419674732249113,0.33691089108910893,0.3262240913187143,0.6413907996560619,0.6202630550852976,0.336988782131898,0.5827795975666823,0.6500532481363153,0.6082794307891332,0.4619862409596048,0.3716145477718603,0.3020361268909172
0.41673938913129716,0.3346534653465346,0.328446981075398,0.6454213241616509,0.6117984112514651,0.33648573871925147,0.575760411792232,0.6424565140220092,0.6046054333764553,0.4572234962074439,0.36820064636533295,0.29756813684815214
0.40642602142007145,0.3342574257425742,0.335656353259237,0.649183147033534,0.5955202500325563,0.33925247748880727,0.5616284510996724,0.6298189563365283,0.5945148771021991,0.4496824836831892,0.36119076881059675,0.2888236420501691
0.41229670765569226,0.3376633663366336,0.3363772904776209,0.6448839208942391,0.5995572340148456,0.3417173902107752,0.5594759007955077,0.6293219737309195,0.5945148771021991,0.44946198624095957,0.36018935773134875,0.2883768430458926
0.4329234430781437,0.34518811881188116,0.3321718233703815,0.632792347377472,0.6210444068238051,0.34473565068665424,0.5738886289190454,0.6417465388711395,0.6041397153945666,0.4567384018345387,0.36765442214028854,0.2983340779983404
0.43927013090043643,0.34495049504950487,0.3270051066386302,0.6308039552880482,0.6318531058731605,0.34242165098848026,0.5830603649976602,0.6473553425630103,0.6084864165588615,0.4602222614217674,0.37065865537803266,0.3019084700325525
0.4372867909559699,0.3403168316831683,0.321477921297687,0.6346195184866724,0.6362807657247037,0.3371396951556919,0.5747309312119794,0.6426695065672702,0.6036739974126778,0.45638560592697114,0.3666985297464609,0.29705750941469333
0.42491074970249904,0.3385346534653465,0.32820666866927006,0.639993551160791,0.6188305768980334,0.3388500427586901,0.5675245671502106,0.6325168619098331,0.5957050452781371,0.4495060857294055,0.3596431335063043,0.2871641028914278
0.4281634272114241,0.3433663366336634,0.33301291679182937,0.6356405846947549,0.6162260711030082,0.34393078122641985,0.5678053345811885,0.630528931487398,0.5949805950840878,0.4480949020991356,0.35923346533752104,0.28448330886576884
0.43451011503371684,0.34899009900990097,0.33667768098528084,0.6296754084264833,0.6173980987107696,0.34906182403541425,0.5811885821244736,0.6398296059637912,0.6028460543337645,0.454533427412242,0.36537848786927035,0.29227037722601645
0.4361761205870686,0.3474455445544554,0.3331330729948933,0.630159071367154,0.6226071103008204,0.34659691131344633,0.5879270004679457,0.6452254171104012,0.6069857697283311,0.4583700829070382,0.3685647958486959,0.2987170485734346
0.42483141610472036,0.3388118811881188,0.328627215379994,0.6398860705073086,0.6181794504492771,0.3392021731475426,0.5823116518483855,0.6388356407525736,0.6015523932729624,0.4546216263891338,0.36483226364422594,0.2956532839726814
0.41673938913129716,0.3323168316831683,0.3249624511865425,0.6469797936371453,0.6155749446542518,0.3335680869259017,0.5754796443612541,0.6295349662761803,0.5949805950840878,0.4491973893102839,0.3590058719104192,0.28799387247079844
0.42483141610472036,0.33374257425742576,0.32093721838389905,0.6432717110920034,0.6266440942831097,0.3327632174656673,0.572391202620496,0.6264820731274405,0.5928072445019404,0.44677191744575756,0.3557285265601529,0.28467479415331587
0.43324077746925826,0.3388514851485148,0.3223190147191349,0.6369840928632846,0.6319833311629118,0.3365863474017807,0.5802526906878802,0.6346467873624422,0.5988615782664941,0.45232845298994523,0.3617369930356411,0.29258951937192823
0.4360174533915114,0.34083168316831675,0.32322018624211474,0.6347269991401547,0.6332855840604245,0.33819608632224957,0.5900795507721104,0.6418885339013135,0.6043984476067269,0.4561210089962956,0.364968819700487,0.2968660241271462
0.42300674335581123,0.3382574257425742,0.3291679182937819,0.64085339638865,0.6160958458132569,0.3391015644650133,0.5830603649976602,0.6369187078452254,0.6002069857697283,0.4519315575939319,0.3586872411124767,0.2879300440416161
0.4157080523601746,0.33667326732673264,0.3322919795734455,0.6444002579535684,0.6068498502409166,0.3393530861713366,0.5666822648572765,0.6276180333688322,0.5932729624838291,0.44633092256129825,0.35204151304110337,0.27988766196463905
0.42665608885362954,0.34138613861386136,0.33115049564433763,0.6374677558039553,0.6170074228415157,0.3419186075758338,0.560411792232101,0.6289669861554846,0.5943596377749029,0.44686011642264944,0.35358914834539573,0.2808450884023744
0.44395081316937735,0.3498217821782178,0.3308501051366777,0.6259135855546002,0.6314624300039068,0.34709995472609284,0.5669630322882545,0.6413205537806176,0.6042432082794307,0.45470982536602567,0.3631935909690928,0.29150443607582815
0.4497421658072194,0.3579405940594059,0.3388404926404326,0.6184436801375752,0.6276858966011198,0.35560138839981886,0.571268132896584,0.650621228257011,0.6140750323415264,0.46326512612453685,0.371204879603077,0.3019084700325525
0.43752479174930586,0.3619009900990099,0.35404025232802644,0.6198946689595873,0.6011199374918609,0.36450525680366214,0.5660271408516612,0.6427405040823572,0.6097283311772315,0.4609278532369024,0.3680185716236515,0.2999936171570817
0.43276477588258633,0.36304950495049504,0.3593872033643737,0.6207545141874462,0.5913530407605156,0.36747321293827656,0.5510528778661674,0.6331558395456159,0.6065717981888744,0.4582818839301463,0.36478674495880564,0.29814259271079335
0.43863546211820714,0.36819801980198014,0.3627515770501652,0.6152730008598452,0.5925250683682771,0.37215151667588914,0.5578848853532989,0.6451544195953142,0.617542043984476,0.4641471158934556,0.3700669124675679,0.3042701219122997
0.4593415311384372,0.38106930693069296,0.36665665364974465,0.5994733447979363,0.6052871467639015,0.38196086322249606,0.5643425362657931,0.6702875399361022,0.6351358344113842,0.47909684247662715,0.3839501115207793,0.32054637135380093
0.46608488694962324,0.3881188118811881,0.3721838389906879,0.5924333619948409,0.6048964708946477,0.388751949293224,0.5473093121197941,0.6761803336883209,0.643880983182406,0.4864173575586523,0.39032272747963037,0.3287164102891428
0.45402618008726703,0.38443564356435644,0.3757284469810754,0.5989896818572656,0.5912228154707644,0.3878967754917249,0.5111839026672905,0.6533191338303159,0.6334282018111255,0.47962603633797846,0.3838135554645181,0.32143996936235397
0.4424434748115828,0.3827326732673267,0.3819164914388705,0.6040950128976784,0.5749446542518557,0.3894059057296645,0.48862891904539074,0.6261980830670926,0.6178525226390684,0.46926265655318394,0.3757567481451135,0.3114189059807238
0.4418088060293535,0.38978217821782174,0.393091018323821,0.5995270851246776,0.5623128011459825,0.3985612958398309,0.4801123069723911,0.6111466098686547,0.6096765847347994,0.4653378020814958,0.37489189312212656,0.3092487393885236
0.45600952003173345,0.3984554455445545,0.39549414238510067,0.5888327601031814,0.57129834613882,0.4051008602042357,0.49012634534394006,0.6133475328363508,0.6109702457956014,0.4684688657611571,0.3789885748099595,0.318057062615689
0.45712019040063473,0.3980594059405941,0.3940522679483328,0.588725279449699,0.5739028519338455,0.40419538206147193,0.4948993916705661,0.6119985800496982,0.6068305304010349,0.466528488269536,0.37766853293276886,0.32175911150826575
0.4422054740182468,0.3949306930693069,0.40060078101531993,0.5958727429062769,0.5544992837609063,0.40494994718044164,0.4835751052877866,0.5940362087326942,0.5919793014230271,0.4557241136002822,0.36901998270289954,0.3140997000063828
0.43744545815152724,0.38902970297029693,0.3952538299789726,0.6015154772141015,0.5563224378174241,0.3990140349112128,0.47318671034160037,0.5769968051118212,0.575679172056921,0.44249426706650197,0.3567754563248213,0.2983979064275228
0.44165013883379617,0.3854257425742574,0.38660258335836584,0.602536543422184,0.5692147415027998,0.393078122641984,0.47094057089377633,0.5711750088746894,0.5704010349288485,0.4372905274298818,0.3518594382994219,0.29335546052211653
0.44482348274494254,0.3895841584158415,0.3905076599579453,0.5986672398968186,0.5675218127360333,0.3973539916494793,0.4819840898455779,0.5799077032303869,0.5764553686934023,0.44249426706650197,0.3581865355728526,0.3010787004531818
0.4500595001983341,0.3852277227722772,0.3799939921898468,0.5998495270851247,0.5832790727959369,0.3901604708486342,0.4839494618624239,0.5867234646787363,0.5792496765847347,0.44611042511906857,0.3630570349128317,0.3073338865130529
0.4510908369694566,0.3766336633663366,0.36611595073595676,0.6053310404127257,0.5991665581455917,0.3788922984053524,0.4718764623303696,0.5794107206247782,0.5731435963777489,0.4428470629740694,0.3613273248668578,0.30835514137997067
0.4555335184450615,0.3746930693069307,0.35980775007509763,0.6051160791057609,0.6097148066154446,0.3750188641279742,0.4682264857276556,0.5731629392971246,0.5677619663648124,0.4386135120832598,0.3576858300332286,0.30624880321695286
0.45545418484728284,0.37390099009900984,0.3586061880444578,0.6057072226999141,0.6108868342232061,0.37406308164394586,0.47749181094992976,0.5775647852325169,0.5681241914618369,0.4383489151525842,0.3582775729436934,0.30624880321695286
0.453788179293931,0.3735841584158416,0.3594472814659057,0.6064595872742906,0.6085427790076833,0.3741636903264752,0.5047262517547964,0.5929712460063897,0.5775420439844761,0.4443464455812312,0.3616914743502207,0.3091210825301589
0.4311781039270131,0.368039603960396,0.36815860618804447,0.6179062768701633,0.5806745670009115,0.3743146033502691,0.5418811417875526,0.6106496272630458,0.5893402328589908,0.449814782148527,0.36301151622741135,0.30388715133720556
0.40721935739785803,0.35841584158415835,0.37170321417843194,0.6325236457437661,0.5571037895559318,0.3696866039539212,0.5562938699110903,0.6107206247781328,0.5899094437257438,0.4476098077262303,0.3585051663707952,0.2941214016723048
0.3896866322887743,0.35001980198019794,0.3722439170922199,0.6441315563198624,0.5421278812345357,0.36455556114492677,0.558727187646233,0.6063187788427404,0.5871668822768433,0.442450167578056,0.3519504756702626,0.28518542158677473
0.39857199523998416,0.3453069306930693,0.35836587563832983,0.6443465176268273,0.5643964057820028,0.3558026057648775,0.5671502105755731,0.6166134185303515,0.5921345407503233,0.4447874404656905,0.3525877372661477,0.283270568711304
0.4129313764379215,0.33805940594059397,0.3364974466806849,0.6444002579535684,0.5999479098840995,0.3420192162583631,0.5799719232569022,0.6286119985800498,0.5977749029754204,0.44932968777562177,0.35618371341435656,0.286653475457969
0.3988893296310988,0.3283564356435643,0.33235205767497744,0.6557394668959587,0.5929157442375309,0.33412143467981287,0.5920449227889565,0.635427760028399,0.6014489003880983,0.45157876168636435,0.35845964768537486,0.2860151911661454
0.3838159460531536,0.32059405940594055,0.3320516671673175,0.6661113499570077,0.5808047922906627,0.3290910005533477,0.5851193261581656,0.63024494142705,0.5976714100905562,0.447168812841771,0.35313396149119214,0.2757388140677858
0.37961126537088463,0.3160792079207921,0.32832682487233406,0.6706255374032675,0.5814559187394193,0.32461391418079383,0.5753860552175948,0.6220092296769613,0.59130659767141,0.4416563767860292,0.3474441258136465,0.267568775132444
0.3828639428798096,0.31798019801980193,0.3288074496845899,0.6682072226999141,0.5836697486651907,0.32607274007746867,0.5769770706598034,0.6261270855520057,0.5946183699870633,0.44355265478920436,0.3493103919158815,0.26776026041999107
0.3904006346687823,0.3211089108910891,0.3278462000600781,0.6635318142734308,0.5908321396015105,0.3276321746566728,0.5956013102480112,0.645864394746184,0.6091073738680465,0.45404833303933667,0.3568664936956621,0.2755473287802387
0.39428798095993656,0.31489108910891084,0.3154701111444878,0.6664337919174548,0.6075009766896731,0.31847678454650635,0.616190921853065,0.6710685126020589,0.6263906856403622,0.4673222790615628,0.36724475397150524,0.28365353928639814
0.38897262990876647,0.3073663366336633,0.3081405827575848,0.6733125537403267,0.6110170595129574,0.3106796116504854,0.6159101544220871,0.6822151224707135,0.6381371280724449,0.47645087316987117,0.3726159588511083,0.2840365098614923
0.38024593415311386,0.31049504950495044,0.3194352658455993,0.6741723989681857,0.5916134913400183,0.317370089038684,0.6210575573233504,0.7052893148739794,0.664424320827943,0.49669253836655486,0.3877281624106696,0.29367460266802836
0.3991273304244348,0.34213861386138616,0.3531390808050466,0.64628116938951,0.5706472196900637,0.3515770410986468,0.6424894712213383,0.7605963791267306,0.7302975420439844,0.55477156464985,0.44093950566707635,0.34333312057190274
0.44545815152717183,0.38748514851485144,0.38690297386602585,0.5998495270851247,0.5719494725875766,0.39453694853865884,0.643238184370613,0.8184593539226127,0.8160413971539455,0.6369730111130709,0.5227821020528927,0.4339694900108508
0.5101943673145578,0.43508910891089103,0.41003304295584264,0.5456255374032674,0.6000781351738507,0.4344282911615273,0.5914833879270004,0.8481363152289669,0.8940232858990944,0.74457576292115,0.6418134644271474,0.570626156890279
0.6080126933756447,0.503049504950495,0.43905076599579457,0.46641229578675836,0.6489126188305768,0.4897127622113788,0.45737014506317264,0.8086616968406106,0.9133764553686933,0.8605574175339565,0.7957121398334016,0.7535584349269164
0.6707655692185642,0.5819009900990099,0.5111444878341844,0.39160576096302663,0.6223466597213178,0.5699984908697621,0.3257838090781469,0.7052893148739794,0.8514359637774902,0.9001587581584053,0.880695525513223,0.8761090189570435
0.6829829432764776,0.6343762376237623,0.5814959447281466,0.35189165950128976,0.5560619872379216,0.6327783087680466,0.24557791296209636,0.5845935392261271,0.7086675291073737,0.8108572940553889,0.8298056352132551,0.8685772643135252
0.6408568028560097,0.6126732673267327,0.5804746170021028,0.3808576956147893,0.5225940877718452,0.618592484531415,0.2412728123537669,0.4686545970891019,0.5029754204398447,0.590227553360381,0.6319814283763485,0.7120061275292014
0.48496628322094415,0.5906534653465346,0.6651246620606789,0.44862424763542563,0.3029040239614533,0.6400221339101564,0.23621899859616283,0.2652467163649272,0.2468305304010349,0.2930852002116775,0.3437115936091765,0.46371353800982956
0.3517651725505752,0.5286336633663367,0.6719134875337939,0.5358447979363715,0.18622216434431565,0.6035011821520198,0.32681328965839956,0.23748668796592123,0.15332470892626132,0.13018168989239723,0.14283763484910553,0.24005872215484775
0.29726299087663627,0.4081584158415841,0.5303694803244217,0.6360167669819433,0.2949602812866258,0.4676794607374616,0.5327094057089377,0.4141285055023074,0.25428201811125484,0.16237431645792905,0.11962310528471935,0.1266356034977979
0.30027766759222535,0.33247524752475244,0.41333733854010213,0.6863177128116938,0.4242739940096366,0.3706423864379496,0.6984557791296209,0.6047568335108271,0.3883570504527813,0.2518080790262832,0.1746551959579407,0.11252952064849682
0.3166997223324078,0.32681188118811877,0.39231000300390506,0.6846517626827171,0.4604766245604896,0.3582675184868454,0.7501169864295741,0.6818601348952786,0.4653557567917205,0.31817780913741395,0.2309618098229323,0.14686921554860533
0.354145180483935,0.33877227722772274,0.3820366476419345,0.6638542562338778,0.5022789425706472,0.3615373006690477,0.7030416471689284,0.6680156194533192,0.5085122897800776,0.3648791674016581,0.2775729436933861,0.1983149294695857
0.37469258230860775,0.3411485148514851,0.37014118353860015,0.655255803955288,0.532100533923688,0.3580663011217868,0.6190921853065043,0.6419595314164004,0.5433893919793014,0.40082025048509434,0.31089262142109336,0.23661198697900043
0.38516461721539075,0.33936633663366333,0.3595073595674377,0.6528912295786758,0.5522854538351347,0.35248251924141055,0.5737014506317266,0.6233581824636137,0.565019404915912,0.41991532898218376,0.32869042742045607,0.25499457458351943
0.39182863942879814,0.3349306930693069,0.3477320516671673,0.6536435941530525,0.5705169944003124,0.34473565068665424,0.5797847449695835,0.6283280085197018,0.5843725743855109,0.4335420709119774,0.34029769220264916,0.2658454075445203
0.40864736215787395,0.33267326732673264,0.3315710423550616,0.649505588993981,0.6017710639406173,0.3365360430605161,0.6079550772110435,0.6545260915867944,0.6102457956015523,0.4519756570823778,0.35518230233510856,0.28135571583583324
0.41562871876239593,0.3261386138613861,0.3163712826674677,0.6516014617368874,0.6240395884880843,0.32602243573620404,0.6248947122133832,0.6712815051473198,0.624424320827943,0.46295642970541534,0.3641494833629205,0.2888236420501691
0.40103133677112257,0.3157227722772277,0.3116251126464404,0.663585554600172,0.6171376481312671,0.31742039337994865,0.6190921853065043,0.6655307064252751,0.6202846054333764,0.45863467983771383,0.3593245027083617,0.28135571583583324
0.3950019833399445,0.31128712871287123,0.3094623009912887,0.6686371453138436,0.6145331423362416,0.3136978721263645,0.6121665886757136,0.6564430244941427,0.6154204398447606,0.45466572587757975,0.35518230233510856,0.27586647092615046
0.4103927013090044,0.3164752475247524,0.3056773805947732,0.6598774720550301,0.6313322047141555,0.3154082197293626,0.6147870846981749,0.6615548455804047,0.6191461836998706,0.4582377844417004,0.3580954982020119,0.281674857981745
0.41792939309797705,0.31881188118811876,0.3035746470411535,0.6557932072226998,0.6396666232582368,0.31601187182453844,0.6269536733738885,0.6712815051473198,0.6277360931435962,0.46538190156994175,0.3655605626109518,0.2918874066509223
0.41872272907576363,0.3158811881188119,0.29846800841093424,0.6575128976784179,0.6459174371662977,0.31198752452336637,0.63378568086102,0.6746183883564075,0.631254851228978,0.4681160698535896,0.3688834266466385,0.2947596859641284
0.40055533518445063,0.3103762376237624,0.30387503754881345,0.6673473774720551,0.6250813908060945,0.3107802203330147,0.6233972859148338,0.6640397586084487,0.624372574385511,0.46264773328629377,0.36323910965451317,0.28588753430778063
0.39484331614438717,0.3102970297029703,0.3081405827575848,0.6693895098882201,0.6158353952337543,0.3124905679360129,0.6090781469349555,0.6547390841320554,0.6186804657179819,0.45792908802257887,0.35700304975192315,0.2765685836471564
0.39904799682665615,0.3131485148514851,0.3092219885851607,0.6660038693035254,0.6181794504492771,0.3148045676341868,0.6058961160505381,0.6565850195243166,0.620698576972833,0.46013406244487554,0.35909690928126,0.27758983851407415
0.4053153510511702,0.3174257425742574,0.3110243316311205,0.6609522785898538,0.6213048574033077,0.3182755671814477,0.6207767898923725,0.6660986865459708,0.627529107373868,0.46560239901217143,0.36583367472347395,0.2862705048828748
0.40158667195557324,0.31801980198019797,0.31468909582457194,0.661865864144454,0.6142726917567392,0.3201368278082398,0.6217126813289658,0.6667376641817536,0.6298059508408796,0.46763097548068433,0.3684282397924348,0.28875981362098674
0.3911146370487902,0.31065346534653465,0.3113848002403124,0.6704105760963027,0.6091939054564396,0.31410030685648166,0.6105755732335049,0.6565140220092297,0.6236998706338939,0.4628682307285235,0.3633301470253539,0.2822493138443863
0.3804839349464499,0.3017821782178218,0.30603784920396515,0.6799763542562338,0.6063289490819116,0.3062025252779315,0.6045858680393074,0.6497692580759673,0.6189391979301422,0.4599576644910919,0.35882379716873775,0.2770792110806153
0.38675128917096396,0.3056633663366336,0.30717933313307294,0.6752472055030094,0.6102357077744497,0.3091704814125459,0.6084230229293401,0.6529641462548811,0.6212677878395859,0.46154524607514547,0.3610086940689152,0.28173868641092736
0.40452201507338365,0.3119603960396039,0.3032742565334935,0.6649290627687016,0.629118374788384,0.31153478545198454,0.6159101544220871,0.6621228257011005,0.6282535575679171,0.4681601693420355,0.3694751695571032,0.29290866151784
0.4029353431178105,0.31330693069306925,0.30651847401622107,0.6645528804815133,0.6243000390675869,0.3137481764676291,0.6196537201684604,0.6654597089101881,0.6311513583441137,0.4724378197212911,0.3745277436387637,0.3008233867364524
0.3933359777865927,0.3088712871287128,0.307059176930009,0.6708404987102321,0.615705169944003,0.311182655063132,0.6053345811885821,0.65580404685836,0.624372574385511,0.46639618980419817,0.3679730529382311,0.2931001468053871
0.39769932566441896,0.3111683168316831,0.30723941123460496,0.6677773000859845,0.6190910274775361,0.3126917853010715,0.5912026204960225,0.6462193823216187,0.6172833117723157,0.4606191568177809,0.3627839228003095,0.2849301078700453
0.4062673542245141,0.31881188118811876,0.3123460498648242,0.6597162510748065,0.6206537309545513,0.31968408873685794,0.5939167056621432,0.6493432729854455,0.6197153945666235,0.46335332510142874,0.3655150439255314,0.28697261760388076
0.40523601745339155,0.32099009900990094,0.3163712826674677,0.6585877042132415,0.6154447193645005,0.3227526535540017,0.603649976602714,0.6566560170394036,0.6253557567917205,0.4677191744575762,0.36829168373617366,0.2904831812089104
0.4072986909956367,0.322019801980198,0.3163712826674677,0.6571904557179707,0.6171376481312671,0.3234066099904422,0.6034627983153954,0.6564430244941427,0.6261319534282017,0.46873346269183275,0.37043106195093084,0.2934831173804812
0.3978579928599762,0.3175841584158416,0.31691198558125566,0.6633705932932071,0.6088032295871858,0.32084108858594496,0.5909218530650444,0.6472133475328363,0.6211125485122897,0.46388251896277993,0.36606126815057577,0.28907895576689857
0.39404998016660064,0.31077227722772277,0.30940222288975666,0.6693357695614789,0.6137517905977341,0.31334574173751195,0.5829667758540009,0.6413915512957047,0.6158344113842172,0.46057505732933496,0.3629204788565706,0.2856960490202336
0.3961919873066244,0.307049504950495,0.3021327726043857,0.6711092003439381,0.623388462039328,0.3079128728809296,0.590828263921385,0.6484913028044018,0.619353169469599,0.46441171282413113,0.36729027265692565,0.29092998021318695
0.40364934549781833,0.30796039603960396,0.2978672273956143,0.6679385210662081,0.6341971610886833,0.30670556869057797,0.5992512868507253,0.6583599574014909,0.626959896507115,0.4714676309754806,0.3755746734034321,0.30209995532009953
0.4065053550178501,0.3111287128712871,0.3005106638630219,0.6648215821152192,0.6336762599296782,0.309874742190251,0.5955077211043519,0.6596379126730565,0.6296507115135834,0.47331980949020985,0.3786244253265965,0.30803599923405883
0.3907973026576756,0.3078811881188118,0.307419645539201,0.6723452278589854,0.6133611147284802,0.3106796116504854,0.5802526906878802,0.6464323748668797,0.6211642949547218,0.4674104780384547,0.3725249214802676,0.2994829897236229
0.38556128520428407,0.307049504950495,0.3101832382096726,0.6747098022355976,0.6060684985024092,0.31128326374566123,0.5679925128685073,0.6388356407525736,0.6158344113842172,0.4640589169165637,0.36738131002776636,0.2914406076466458
0.4020626735422452,0.31508910891089104,0.30988284770201263,0.6636392949269131,0.6198723792160437,0.3163136978721264,0.5734206832007487,0.64572239971601,0.6207503234152651,0.4689980596225083,0.3725249214802676,0.2997383034403523
0.414914716382388,0.32075247524752476,0.30874136377290473,0.6554707652622528,0.631592655293658,0.3194325670305347,0.5780065512400561,0.6528221512247071,0.6264941785252263,0.47503968953960124,0.379671355091265,0.30790834237569414
0.4133280444268148,0.3218613861386138,0.3116251126464404,0.655255803955288,0.6271649954421149,0.32134413199859146,0.5766027140851661,0.6526801561945331,0.6278913324708925,0.47653907214676305,0.38144658382265917,0.3085466266675177
0.4028560095200318,0.31702970297029703,0.3122258936617603,0.6620808254514188,0.6179189998697746,0.318527088887771,0.5650912494150678,0.6438054668086617,0.6234411384217334,0.47384900335156105,0.3777595703036096,0.3049084062041233
0.4066640222134074,0.31263366336633663,0.30267347551817364,0.6638005159071367,0.6314624300039068,0.3116856984757784,0.5562002807674309,0.6368477103301384,0.6202846054333764,0.4719086258599399,0.3763484910555783,0.30363183762047613
0.41388337961126537,0.314970297029703,0.3007509762691499,0.6597699914015477,0.6394061726787341,0.31238995925348356,0.557042583060365,0.640397586084487,0.6239586028460542,0.4767595695889927,0.38203832673312393,0.3109082785472649
0.4297500991669973,0.3254653465346534,0.3046560528687293,0.6472484952708513,0.6482614923818205,0.320690175562151,0.5658399625643424,0.6516861909833156,0.6343596377749029,0.4867701534662197,0.3932814420319541,0.32322716537946
0.42705275684252286,0.32891089108910887,0.3119255031541003,0.6458512467755804,0.6381039197812215,0.32592182705367473,0.5640617688348151,0.6531771388001419,0.6369987063389391,0.48950432174986763,0.39669534343848145,0.3271206995595838
0.4336374454581515,0.33267326732673264,0.31264644037248424,0.6410683576956148,0.6427920302122672,0.3285879571407012,0.5495554515676181,0.64572239971601,0.6323415265200517,0.4858440642088551,0.39510218944876874,0.32578030254675433
0.43974613248710837,0.3334653465346535,0.30928206668669267,0.6384350816852966,0.6515171246256022,0.32768247899793757,0.5376696303228825,0.6430244941427049,0.6311513583441137,0.4868142529546657,0.3955573763029724,0.3272483564179485
0.4493454978183261,0.3330693069306931,0.3013517572844698,0.6354256233877902,0.6679255111342622,0.32416117510941195,0.5425362657931679,0.6511892083777068,0.6396377749029754,0.49717763273946014,0.40552596841003224,0.33988638539605537
0.46188020626735427,0.3358019801980198,0.29600480624812253,0.6293529664660361,0.6840734470634197,0.32360782735550075,0.5496490407112775,0.6639687610933617,0.6524191461836998,0.5090403951314164,0.4175884200464291,0.3565456054126508
0.4675128917096391,0.3375445544554455,0.2943826975067588,0.6262897678417885,0.6903242609714807,0.32406056642688263,0.5415067852129153,0.6654597089101881,0.6557826649417852,0.5140677368142529,0.4236424052073376,0.36439650220208075
0.4631495438318128,0.3345346534653465,0.29312105737458694,0.6297828890799656,0.6882406563354603,0.3216459580461794,0.5270940570893776,0.6601348952786653,0.6548512289780076,0.5146851296524959,0.4238699986344394,0.3616518797472394
0.45759619198730667,0.33148514851485145,0.292700510663863,0.6337059329320722,0.6840734470634197,0.3194828713717994,0.5128685072531586,0.6546680866169684,0.6539197930142302,0.516713706121009,0.42591833947835583,0.3626093061849748
0.47536691788972635,0.33687128712871284,0.28741363772904777,0.6240326741186586,0.7043885922646177,0.32074047990341564,0.5123069723912026,0.6646077387291445,0.664424320827943,0.5287969659551949,0.4393008329919432,0.3802897810684879
0.49781832606108695,0.34653465346534656,0.2850705917693001,0.6098989681857265,0.7253548639145722,0.3258715227124101,0.5217594759007954,0.6837770678026269,0.6803622250970245,0.5440112894690421,0.4547316673494469,0.4003319078317482
0.5002776675922254,0.3502970297029702,0.28891559026734753,0.6065133276010318,0.7232712592785518,0.32984556567231754,0.5183902667290594,0.6891018814341497,0.6879172056921086,0.5532280825542423,0.4637443670626792,0.4116933682262079
0.4952003173343912,0.3487920792079207,0.2904776209071793,0.6092540842648323,0.7174111212397447,0.3295437396247296,0.4975198876930276,0.680866169684061,0.6871927554980595,0.5546833656729581,0.4682507169192954,0.416161358268973
0.50059500198334,0.34966336633663364,0.2876539501351757,0.606835769561479,0.7248339627555671,0.3289400875295538,0.4809546092653252,0.6797302094426695,0.6910219922380335,0.5601958017286999,0.473940552596841,0.42350162762494414
0.5131297104323682,0.356039603960396,0.28795434064283565,0.5982373172828891,0.7347310847766636,0.33311534785451985,0.48282639213851186,0.6925097621583245,0.704476067270375,0.5730287528664666,0.48786927033547267,0.44041616135826894
0.5325664418881397,0.3664158415841584,0.28891559026734753,0.5846410146173688,0.7497069930980597,0.34010765129030635,0.4890968647636874,0.7063542776002839,0.7193790426908149,0.5865231963309225,0.5026628430970913,0.4592455479670645
0.5353431178103928,0.3692673267326732,0.2911384800240312,0.5817927773000859,0.7495767678083084,0.34287439005986214,0.4871314927468413,0.7143769968051118,0.7280206985769727,0.5945052037396366,0.5097182393372479,0.4706708367907066
0.5263784212614043,0.3662178217821782,0.2932412135776509,0.5868981083404987,0.7399400963667143,0.34181799889330444,0.47412260177819365,0.7094071707490238,0.7262095730918499,0.5944611042511906,0.510856206472757,0.4730324886704538
0.528758429194764,0.36716831683168316,0.292940823069991,0.5853933791917455,0.7422841515822372,0.3422707379646863,0.45980346279831535,0.703727369542066,0.7239327296248381,0.5937996119245016,0.512085210979107,0.4756494542669305
0.5425624752082507,0.3775841584158416,0.29822769600480625,0.5736779879621668,0.7478838390415419,0.3510739976860003,0.4624239588207767,0.7146609868654598,0.7334540750323414,0.6025313106367965,0.5201420182985116,0.48637263036956657
0.5551765172550576,0.3906930693069306,0.3086212075698408,0.560511607910576,0.7468420367235317,0.363800996025957,0.4682264857276556,0.7270145544905927,0.7443208279430787,0.6120568001411183,0.5297009422367882,0.49939362992276753
0.5575565251884174,0.39726732673267323,0.31679182937819167,0.5552450558899398,0.7399400963667143,0.37134664721565475,0.4645765091249415,0.7294994675186368,0.7480983182406209,0.6146145704709824,0.5330238062724749,0.5043722473989914
0.5386751289170965,0.3931485148514851,0.3248422949834785,0.5644346517626826,0.7158484177627296,0.37215151667588914,0.4590547496490407,0.7221157259495917,0.7435963777490296,0.6084406420885518,0.5263780782011016,0.4968404927554732
0.526219754065847,0.3907326732673267,0.33060979273054975,0.570292347377472,0.6993098059643182,0.37300669047738816,0.4595226953673373,0.7192758253461128,0.7405433376455367,0.6035014993826071,0.5195957940734671,0.4880959979574902
0.5269337564458549,0.39453465346534644,0.33583658756383294,0.5674441100601891,0.6942310196640187,0.37763468987373605,0.4764623303696771,0.7260915867944622,0.7427166882276842,0.6003704357029458,0.5142701078792844,0.47909618944277776
0.5232844109480366,0.4019405940594059,0.34983478522078704,0.563682287188306,0.6761297043885922,0.38819860153931285,0.5021057557323351,0.7331913383031593,0.7440103492884863,0.5959163873699064,0.5076698984933316,0.4700963809280653
0.5117017056723523,0.40439603960396037,0.36233103033944125,0.5659393809114359,0.6529496028128662,0.3949896876100408,0.51268132896584,0.7281505147319843,0.7372833117723155,0.5852443111659904,0.49510674131731075,0.4545860726367524
0.4867909559698533,0.3967128712871287,0.3695404025232803,0.5795894239036973,0.6248209402265921,0.393078122641984,0.5093121197941038,0.7096201632942847,0.7194307891332471,0.5664138295995765,0.4743502207656243,0.42950149996808573
0.46330821102737013,0.38704950495049506,0.3726644638029438,0.5940993121238176,0.602161739809871,0.38829921022184216,0.5178287318671034,0.69613063542776,0.7040103492884863,0.5489945316634326,0.4558696344849561,0.40518286844960744
0.4580721935739786,0.38380198019801975,0.37170321417843194,0.5980760963026656,0.598775882276338,0.3858342974998742,0.5345811885821244,0.69613063542776,0.6952134540750322,0.5388957488093138,0.445263780782011,0.39305546690495946
0.46949623165410553,0.39021782178217823,0.3727846200060078,0.5898538263112639,0.6071103008204193,0.3903616882136928,0.5499298081422554,0.6967696130635428,0.6900905562742561,0.5322808255424236,0.4384359779689563,0.38845982000382967
0.4537088456961524,0.38629702970297025,0.37879243015920694,0.5978611349957007,0.5875765073577288,0.3903616882136928,0.5518015910154421,0.6853390131345403,0.6768434670116429,0.5190509790086434,0.424689334972006,0.36994957554094593
0.43205077350257837,0.37263366336633663,0.37446680684890354,0.6144668959587274,0.5744237530928507,0.3798983852306454,0.5458118858212447,0.6637557685481008,0.6566106080206986,0.49973540306932435,0.40607219263507666,0.3456309440224676
0.42419674732249113,0.3662178217821782,0.3706818864523881,0.6215068787618229,0.5720796978773277,0.3742139946677398,0.5459990641085634,0.6502662406815761,0.6432600258732211,0.4864614570470982,0.39187036278392273,0.330184464160337
0.4228480761602539,0.3659801980198019,0.371282667467708,0.6220980223559759,0.5703867691105613,0.3743146033502691,0.5547964436125409,0.6523251686190983,0.6404139715394566,0.4837272887634503,0.38891164823159907,0.32667390055530726
0.4272907576358589,0.368039603960396,0.37104235506158006,0.6191960447119518,0.5742935278030994,0.37552190754062076,0.5673373888628919,0.6587859424920127,0.6402069857697282,0.48456517904392304,0.3891392416587009,0.3271206995595838
0.4212614042046807,0.36542574257425736,0.3716431360769,0.6230116079105761,0.5686938403437947,0.3741133859852105,0.5672437997192326,0.6531771388001419,0.633169469598965,0.47812665373081664,0.384541854431244,0.3193974596285185
0.40491868306227696,0.35695049504950493,0.3712225893661761,0.6342970765262252,0.5556713113686678,0.3685799084460989,0.5575105287786616,0.6403265885694001,0.6211125485122897,0.4674104780384547,0.3725249214802676,0.3044616071998468
0.3995239984133281,0.3535445544554456,0.37014118353860015,0.6384350816852966,0.552415679124886,0.36596408270033703,0.5538605521759475,0.6319488817891373,0.6158344113842172,0.46114835067913207,0.36688060448814236,0.298078764281611
0.4073780245934154,0.3563564356435643,0.3684589966957044,0.6338671539122958,0.5607500976689673,0.36702047386689474,0.5636874122601778,0.6389776357827477,0.6201811125485122,0.4645881107779149,0.37002139378214755,0.3058658326418586
0.42340341134470455,0.3626138613861386,0.3658756383298288,0.6241938950988822,0.5767678083083735,0.3699381256602445,0.5711745437529246,0.6465743698970536,0.6239068564036222,0.4684688657611571,0.37338977650325456,0.3116103912682709
0.4169773899246332,0.3605544554455445,0.36755782517272456,0.6277944969905417,0.5696054173720536,0.36933447356506865,0.5708937763219466,0.6460773872914448,0.6238551099611901,0.4677632739460222,0.37288907096363055,0.311993361843365
0.4020626735422452,0.3531881188118811,0.36767798137578855,0.6377901977644024,0.557234014845683,0.36470647416872076,0.5628451099672437,0.6368477103301384,0.6171798188874514,0.46101605221379427,0.3669261231735627,0.30292972489947023
0.400714002380008,0.3477227722772277,0.36040853109041754,0.641981943250215,0.564005729912749,0.35816690980431615,0.557323350491343,0.6309549165779197,0.6117464424320826,0.4562533074616334,0.362465292002367,0.29744047998978745
0.4065053550178501,0.34899009900990097,0.3578852508260739,0.6391337059329321,0.5714285714285714,0.35791538809799284,0.5658399625643424,0.6374156904508342,0.6154721862871927,0.4596489680719703,0.3646957075879648,0.30171698474500536
0.4196747322491075,0.3564752475247524,0.3593872033643737,0.629621668099742,0.5806745670009115,0.3632979526133105,0.5759475900795508,0.6487042953496627,0.6228719275549804,0.4657787969659551,0.37024898720924937,0.3089295972426118
0.41991273304244353,0.35801980198019795,0.36148993691799336,0.6284931212381771,0.5785909623648913,0.3651592132401026,0.575198876930276,0.6495562655307064,0.6253557567917205,0.4676750749691303,0.37307114570531197,0.3118018765558179
0.4068226894089647,0.3524356435643564,0.3629318113547612,0.6367153912295787,0.5663497851282718,0.36224156144675285,0.5616284510996724,0.6376286829960951,0.6178007761966364,0.46233903686717226,0.36829168373617366,0.30439777877066443
0.4023800079333599,0.34827722772277225,0.3599879843796936,0.6410146173688736,0.5658288839692668,0.35831782282811003,0.5494618624239588,0.6293929712460063,0.6113324708926261,0.457840889045687,0.3641494833629205,0.29814259271079335
0.4066640222134074,0.3489504950495049,0.3577650946230099,0.6391337059329321,0.5718192472978252,0.3578650837567282,0.5528310715956949,0.6365637202697906,0.616921086675291,0.46238313635561823,0.3693841321862624,0.3040148081955703
0.40896469654898854,0.35005940594059404,0.35764493841994593,0.6376289767841788,0.5737726266440943,0.35851904019316866,0.5621899859616284,0.6437344692935747,0.6228201811125484,0.4671458811077791,0.37461878100960444,0.3112274206931767
0.40396667988893303,0.35140594059405933,0.3635325923700811,0.6383813413585555,0.5633546034639927,0.3618391267166356,0.5588207767898924,0.6430244941427049,0.6235446313065977,0.4680278708766978,0.37602986025763574,0.3132699304270122
0.39547798492661645,0.34855445544554453,0.36563532592370085,0.6432179707652623,0.5539783826019011,0.36088334423260726,0.5454375292466074,0.6313809016684416,0.616921086675291,0.4640589169165637,0.37243388410942685,0.3068870875087764
0.39468464894882993,0.34392079207920795,0.3592069690597777,0.646603611349957,0.5603594217997134,0.3552492580109663,0.5412260177819372,0.6277600283990059,0.6135575679172056,0.46273593226318566,0.3709317674905549,0.3045892640582115
0.4018246727489092,0.3430891089108911,0.3525382997897266,0.6447764402407566,0.5735121760645917,0.35192917148749936,0.5488067384183434,0.6362797302094426,0.6197153945666235,0.46873346269183275,0.37666712185352086,0.3123125039892768
0.4050773502578342,0.3447920792079207,0.35271853409432263,0.6424656061908857,0.5759864565698658,0.3530861713365863,0.5562938699110903,0.6465743698970536,0.627529107373868,0.4757893808431822,0.3834949246665756,0.3194612880577009
0.4023800079333599,0.34392079207920795,0.3533793932111745,0.6440240756663801,0.5729912749055865,0.35278434528899844,0.5533926064576509,0.64572239971601,0.6274773609314359,0.47631857470453337,0.38404114889162005,0.31952511648688325
0.393256644188814,0.33801980198019804,0.3513968158606188,0.6511177987962167,0.5676520380257846,0.34825695457517986,0.5412260177819372,0.6342917997870076,0.6198706338939197,0.47054154171811596,0.3781237197869725,0.31218484713091205
0.3903213010710036,0.3363168316831683,0.3509762691498949,0.6532674118658641,0.5656986586795155,0.3469490417022989,0.5328965839962564,0.6274050408235713,0.615679172056921,0.4674104780384547,0.3757112294596932,0.3081636560924235
0.3994446648155494,0.34190099009900987,0.3525382997897266,0.6463349097162511,0.5715587967183227,0.3511746063685296,0.5432849789424427,0.6364927227547036,0.6214230271668822,0.47376080437466916,0.38126450908097775,0.3169081508904066
0.4103927013090044,0.34657425742574255,0.3513367377590868,0.6395098882201203,0.5817163693189217,0.3536395190904975,0.5561066916237716,0.6476393326233582,0.6305821474773609,0.4811695184335861,0.3893668350858027,0.3262909299802132
0.40761602538675135,0.34499009900990096,0.35103634725142685,0.6414982803095443,0.5797629899726526,0.35248251924141055,0.5526438933083762,0.6462903798367057,0.6293402328589909,0.47962603633797846,0.38863853611907684,0.32667390055530726
0.397223324077747,0.3384554455445544,0.34899369179933915,0.6494518486672398,0.5735121760645917,0.34750238945621004,0.5378568086102011,0.6339368122115725,0.6209055627425614,0.4719527253483859,0.3810824343392963,0.3165890087444948
0.39627132090440303,0.3373465346534653,0.3480324421748273,0.6505266552020637,0.5737726266440943,0.3463956939483877,0.5297145531118389,0.6274050408235713,0.6172315653298834,0.4680278708766978,0.377304383449406,0.310206165826259
0.4025386751289171,0.34106930693069304,0.3489336136978071,0.6458512467755804,0.5779398359161348,0.3491121283766789,0.5393542349087506,0.6349307774227901,0.6222509702457955,0.47226142176750746,0.3814010651372388,0.31499329801493586
0.4072986909956367,0.34546534653465344,0.35199759687593873,0.6412833190025795,0.5785909623648913,0.3532370843603803,0.5516144127281235,0.6444444444444444,0.6276326002587321,0.47781795731169513,0.38627156447721783,0.3206740282121657
0.40047600158667196,0.3426534653465346,0.3528987683989186,0.6454750644883921,0.5719494725875766,0.35182856280497005,0.5478708469817501,0.6420305289314873,0.6262354463130659,0.4768036690774386,0.384541854431244,0.31933363119933617
0.3907973026576756,0.33548514851485145,0.3492940823069991,0.6536435941530525,0.5679124886052871,0.34574173751194726,0.5332709405708937,0.6297479588214412,0.6171798188874514,0.4687775621802786,0.376302972370158,0.30975936682198246
0.39428798095993656,0.33683168316831674,0.3487533793932112,0.6515477214101462,0.57129834613882,0.3463956939483877,0.5299017313991576,0.6244941427050054,0.6133505821474773,0.4655582995237254,0.37266147753652873,0.3054190336375821
0.40055533518445063,0.34241584158415844,0.35247822168819465,0.6456362854686157,0.5724703737465815,0.3514764324161175,0.5410388394946186,0.6340788072417465,0.6194566623544631,0.4702769447874404,0.37798716373071145,0.31167421969745324
0.4093613645378818,0.34681188118811884,0.35247822168819465,0.639671109200344,0.5797629899726526,0.35429347552693796,0.5518015910154421,0.6425985090521832,0.6253040103492884,0.4747750926089257,0.38308525649779235,0.3185038616199655
0.4061880206267354,0.34459405940594057,0.3515169720636828,0.6422506448839209,0.5780700612058861,0.35248251924141055,0.5499298081422554,0.6394036208732694,0.6224579560155239,0.47279061562885866,0.3813100277663981,0.3158868960234888
0.3919873066243555,0.3389306930693069,0.35367978371883446,0.6509028374892519,0.5641359552025003,0.3497660848131194,0.5386055217594758,0.627547035853745,0.6140232858990944,0.46635209031575225,0.3747553370658655,0.30861045509670004
0.3902419674732249,0.3375445544554455,0.3528987683989186,0.6524613069647464,0.5634848287537438,0.34855878062276774,0.5328029948525971,0.6208732694355696,0.6098318240620957,0.46273593226318566,0.370704174063453,0.3038233229080232
0.39777865926219763,0.34095049504950486,0.3523580654851307,0.6475709372312983,0.5702565438208099,0.35047034559082446,0.5407580720636406,0.6283280085197018,0.615058214747736,0.46608749338507666,0.3739815194137193,0.30918491095934125
0.40301467671558905,0.34384158415841576,0.35277861219585466,0.6438628546861564,0.574163302513348,0.35248251924141055,0.5489939167056621,0.6356407525736598,0.618732212160414,0.4697477509260892,0.3778050889890299,0.31282313142273566
0.396985323284411,0.3402772277227722,0.35193751877440677,0.648323301805675,0.5701263185310588,0.3498666934956487,0.5465605989705193,0.6325168619098331,0.6155756791720569,0.46644028929264414,0.37562019208885244,0.31014233739707664
0.38762395874652916,0.3352475247524752,0.3513968158606188,0.6548796216680997,0.5630941528844902,0.346496302630917,0.5332709405708937,0.6193113241036563,0.6067787839586029,0.45832598341859226,0.3676999408257089,0.30005744558626407
0.38683062276874264,0.3363168316831683,0.3536197056173025,0.6544496990541703,0.5599687459304596,0.34810604155138586,0.5279363593823115,0.6136315228966985,0.6028460543337645,0.45554771564649843,0.3651964131275888,0.2948235143933108
0.3953986513288378,0.3411089108910891,0.35440072093721836,0.6482695614789338,0.5662195598385206,0.35142612807485285,0.5364529714553111,0.6218672346467873,0.6085381630012936,0.4603545598871052,0.37034002458009013,0.301461671028276
0.40158667195557324,0.3443960396039603,0.35476118954641034,0.6439703353396389,0.5707774449798151,0.35368982343176214,0.5466541881141788,0.6304579339723109,0.6146442432082794,0.4655582995237254,0.37525604260548956,0.30937639624688834
0.3957953193177311,0.34095049504950486,0.3538600180234305,0.6482695614789338,0.5670009115770283,0.35112430202726497,0.544782405240992,0.6274050408235713,0.6133505821474773,0.4635738225436584,0.37243388410942685,0.3051637199208527
0.38762395874652916,0.335960396039604,0.35247822168819465,0.6543959587274291,0.5619221252767287,0.34735147643241615,0.5297145531118389,0.617749378771743,0.606261319534282,0.45682660081143056,0.36546952524011106,0.295397970255952
0.3847679492264975,0.33508910891089105,0.3533793932111745,0.6559544282029235,0.5585362677431956,0.34720056340862215,0.5197941038839494,0.6120695775647852,0.6012936610608021,0.45276944787440465,0.36123628749601705,0.2916320929341929
0.3956366521221738,0.3413465346534653,0.35464103334334635,0.648054600171969,0.5660893345487694,0.35172795412244073,0.5241927936359382,0.6203052893148739,0.6078137128072444,0.4581936849532545,0.36665301106104053,0.29846173485670513
0.40642602142007145,0.348,0.3565034544908381,0.6398860705073086,0.5728610496158354,0.3567080839076412,0.5287786616752457,0.6309549165779197,0.6173350582147477,0.4654701005468336,0.37379944467203785,0.306823259079594
0.40817136057120196,0.3521188118811881,0.36142985881646145,0.6364466895958727,0.5689542909232973,0.36138638764525377,0.5240056153486196,0.6313809016684416,0.6191979301423026,0.46749867701534653,0.37525604260548956,0.30937639624688834
0.3988893296310988,0.3535445544554456,0.3706218083508561,0.6386500429922614,0.551504102096627,0.366114995724131,0.5131492746841366,0.6222932197373092,0.6143337645536869,0.4630005291938613,0.37002139378214755,0.30363183762047613
0.396985323284411,0.35956435643564355,0.3811955542204866,0.6352106620808255,0.5383513478317489,0.37436490769153374,0.5063172671970051,0.6155484558040469,0.6110737386804657,0.46004586346798365,0.3669716418589831,0.30056807301972294
0.40761602538675135,0.37160396039603955,0.3914088314809252,0.6234415305245056,0.5361375179059772,0.38628703657125607,0.5138043986897519,0.6242101526446574,0.620077619663648,0.4675868759922384,0.3736628886157768,0.31007850896789424
0.4134073780245935,0.37996039603960396,0.39969960949234007,0.6158104041272572,0.5318400833441853,0.39509029629257003,0.5235376696303229,0.6435924742634008,0.6360672703751616,0.4787440465690597,0.3837680367790978,0.32169528307908335
0.4175327251090838,0.383128712871287,0.4013817963352358,0.6122635425623388,0.5334027868212007,0.3978067307208612,0.5091249415067851,0.6497692580759673,0.6430530401034928,0.48293349797142343,0.3867722700168419,0.3248867045382013
0.4150733835779453,0.38190099009900985,0.4013817963352358,0.6139294926913156,0.5314494074749315,0.39700186126062675,0.46672905942910625,0.6323748668796592,0.6336351875808537,0.47728876345034393,0.38162865856434064,0.3165890087444948
0.410948036493455,0.3843564356435643,0.40817062180835084,0.6136607910576096,0.5206407084255762,0.40142864329191613,0.44080486663547025,0.6119275825346113,0.6227684346701164,0.4708943376256835,0.3776230142473485,0.31263164613518857
0.41681872272907583,0.3933861386138614,0.4175428056473416,0.6055460017196905,0.5153014715457741,0.4110870768147291,0.4401497426298549,0.6031238906638267,0.6200258732212159,0.4711148350679132,0.3795803177204242,0.3197804302036127
0.42522808409361373,0.40134653465346537,0.42319014719134873,0.5972699914015477,0.5160828232842818,0.4185321193218975,0.44202152550304163,0.6028399006034789,0.6201811125485122,0.4740254013053448,0.38440529837498294,0.3299929788727899
0.42340341134470455,0.39936633663366333,0.42156803844998497,0.5992583834909716,0.5163432738637843,0.4165702500125761,0.43837154890032753,0.5921192758253461,0.6111772315653299,0.4688216616687246,0.38044517274341116,0.32737601327631327
0.4122173740579136,0.39580198019801976,0.4246320216281166,0.6054385210662081,0.5038416460476624,0.4156144675285477,0.4252690687880205,0.5719559815406461,0.5951875808538163,0.4560769095078496,0.36965724429878466,0.3165251803153124
0.4040460134867117,0.3944554455445544,0.428837488735356,0.60914660361135,0.49264227112905323,0.4165199456713114,0.4211511464670098,0.5584664536741214,0.5822509702457955,0.4447874404656905,0.3603259137876098,0.3054190336375821
0.40523601745339155,0.3939405940594059,0.4271553018924602,0.6090928632846088,0.49537700221382985,0.4154635545047537,0.43088441740758066,0.5588924387646432,0.5790944372574385,0.44249426706650197,0.3582775729436934,0.3029935533286525
0.4115033716779056,0.3932277227722772,0.421267647942325,0.6074806534823731,0.5068368277119416,0.41254590271140396,0.44286382779597566,0.5654952076677316,0.5832858990944373,0.44663961898041976,0.3623742546315262,0.3096317099636178
0.41547005156683864,0.3863762376237624,0.4078702313006909,0.6107588134135856,0.5246776924078655,0.40258564314100304,0.4350023397285914,0.564430244941427,0.5814747736093143,0.44637502204974416,0.36223769857526517,0.3099508521095296
0.41642205474018257,0.3795643564356435,0.3968158606188044,0.6150580395528805,0.53743977080349,0.3936314703958952,0.4177819372952737,0.5534256301029463,0.5713842173350582,0.439098606456165,0.35627475078519727,0.30407863662475265
0.4205474018246728,0.37928712871287124,0.39327125262841695,0.6138220120378332,0.5447323870295611,0.39197142713416167,0.41422554983621895,0.549094781682641,0.5670892626131953,0.43570294584582814,0.3544540033683827,0.30241909746601137
0.43022610075366924,0.3849504950495049,0.3945328927605888,0.6067282889079966,0.5512436515171246,0.396096383117863,0.4291062236780533,0.5571884984025559,0.5720051746442432,0.44015699417886744,0.35977968956256545,0.3113550775515414
0.43133677112257046,0.3819405940594059,0.3891258636227095,0.6083942390369733,0.5580153665841906,0.39192112279289704,0.45269068788020583,0.569400070997515,0.5777490297542043,0.4441259481390016,0.36301151622741135,0.3168443224612242
0.4132487108290362,0.3710891089108911,0.3863622709522379,0.6218830610490111,0.5461648652168251,0.38387242819055284,0.46897519887693023,0.5755058572949947,0.5802846054333763,0.44258246604339385,0.35941554007920257,0.30975936682198246
0.38064260214200724,0.3591287128712871,0.39291078401922497,0.6410683576956148,0.512306289881495,0.37899290708788164,0.47908282639213845,0.5737309194178203,0.5773868046571797,0.43852531310636794,0.3528608493786699,0.2969298525563286
0.36572788575961923,0.3519603960396039,0.39327125262841695,0.650956577815993,0.4996744367756218,0.37461642939785705,0.48872250818905,0.5712460063897764,0.5754721862871927,0.43517375198447694,0.34799035003869083,0.28595136273696303
0.3662038873462912,0.3464158415841584,0.3845599279062782,0.6545571797076526,0.5095715587967183,0.3674229085970119,0.5093121197941038,0.5820376286829961,0.5842690815006467,0.43962780031751625,0.351495288816059,0.286844960745516
0.36921856406188025,0.33976237623762373,0.3721838389906879,0.6580503009458297,0.5253288188566219,0.3580663011217868,0.5241927936359382,0.5959531416400426,0.5929624838292367,0.4450961368848121,0.35636578815603803,0.292015063509287
0.3646965489884966,0.3277227722772277,0.357344547912286,0.6677773000859845,0.5377002213829926,0.3441823029327431,0.5285914833879269,0.5992900248491303,0.5922380336351876,0.44355265478920436,0.35345259228913467,0.2867811323163337
0.35089250297500996,0.31766336633663367,0.3525382997897266,0.6792777300085985,0.5317098580544342,0.33578147794154634,0.5219466541881141,0.5936102236421725,0.58633893919793,0.4375110248721114,0.3444398925759024,0.2735686474755856
0.34875049583498613,0.3160792079207921,0.35175728446981075,0.6810511607910577,0.530668055736424,0.33442326072740075,0.518015910154422,0.5893503727369541,0.583130659767141,0.433762568354207,0.3408894351131139,0.2664836918363439
0.3588258627528759,0.32130693069306926,0.3520576749774707,0.6740649183147034,0.5387420237010028,0.3378942602746617,0.528310715956949,0.5987220447284345,0.59006468305304,0.43927500440994877,0.3464882334198188,0.2731218484713091
0.36842522808409367,0.3264158415841584,0.35259837789125864,0.6673473774720551,0.5460346399270738,0.3413652598219226,0.5467477772578381,0.6179623713170039,0.6035187580853816,0.4487122949373787,0.3544084846829624,0.2811642305482862
0.36715589051963515,0.3218613861386138,0.34659056773805946,0.6708942390369734,0.551504102096627,0.3359323909653403,0.558727187646233,0.6350017749378772,0.6142302716688227,0.4556800141118363,0.3575492739769675,0.2783557796642624
0.3623165410551369,0.3143762376237624,0.33890057074196456,0.6776117798796216,0.5558015366584189,0.3279843050455254,0.5574169396350023,0.6422435214767483,0.6210090556274255,0.4600899629564297,0.3585506850562155,0.27076019659156186
0.36310987703292347,0.3203564356435643,0.34743166115950735,0.6733125537403267,0.5472066675348352,0.3353287388701645,0.5611605053813757,0.6626198083067093,0.6445536869340233,0.4768918680543305,0.3695206882425236,0.2759302993553328
0.3812772709242364,0.34784158415841576,0.37530790027035144,0.6484845227858985,0.5318400833441853,0.36450525680366214,0.5839962564342536,0.714093006744764,0.7052005174644242,0.5285323690245193,0.4164959715963402,0.32373779281291887
0.41245537485124956,0.38376237623762377,0.40624812255932713,0.6135533104041273,0.523896340669358,0.4002716434428291,0.5944782405240993,0.7733759318423855,0.785666235446313,0.6059710707355794,0.4931949565296554,0.40709772132507815
0.4597381991273305,0.4257425742574257,0.43406428356863924,0.5690563198624248,0.532621435082693,0.43855324714522864,0.5478708469817501,0.7978700745473908,0.8579042690815005,0.700476274475216,0.594519550275388,0.522499521286781
0.5397857992859977,0.49100990099009895,0.4723941123460499,0.49763542562338786,0.5567131136866779,0.49605110921072487,0.4206832007487131,0.7546325878594249,0.8754463130659765,0.804065972834715,0.72943693386135,0.6816237952383992
0.607219357397858,0.5749702970297029,0.5487533793932111,0.41783104041272573,0.5293658028389112,0.5813169676543085,0.28890968647636867,0.6531061412850551,0.8202846054333762,0.8545157876168635,0.8283035185943829,0.8205782855683921
0.633082110273701,0.6403960396039604,0.628416942024632,0.36473559759243335,0.46425315796327643,0.6562704361386388,0.201123069723912,0.5350372736954206,0.6909184993531694,0.7931292997001235,0.8114616049888479,0.849811706133912
0.6015073383577947,0.6244752475247524,0.6281766296185041,0.3861779879621668,0.4385987758822763,0.6460586548619146,0.18493214787084694,0.43201987930422436,0.5039586028460542,0.6076909507849708,0.6526924302426146,0.7287291759749792
0.4643395477984927,0.5967128712871287,0.6898768398918594,0.4514724849527085,0.2591483266050266,0.6542079581467881,0.16050538137576037,0.22889598864039754,0.2441397153945666,0.3156641382959957,0.3775319768765078,0.4958830663177379
0.32407774692582314,0.5468118811881187,0.7204565935716432,0.5328890799656062,0.11095194686808171,0.6353438301725439,0.2145999064108563,0.14355697550585725,0.10359637774902976,0.10672076203916031,0.1384678410487505,0.25020744239484266
0.26632288774295915,0.43774257425742574,0.5986782817662962,0.626450988822012,0.19546815991665578,0.5151164545500276,0.4224613944782405,0.31466098686545974,0.19560155239327295,0.12184688657611566,0.09404160407847423,0.12408246633050357
0.25886552955176517,0.3498217821782178,0.4709522379092821,0.6886285468615648,0.32777705430394577,0.4057548166406761,0.6188114178755264,0.5324813631522897,0.3498059508408796,0.22305521255953425,0.15535527333970592,0.11112529520648497
0.2720349067830226,0.3302178217821782,0.43130069089816764,0.6974419604471195,0.3815600989712202,0.37672921173097235,0.68591483387927,0.6262690805821796,0.43829236739974126,0.296789557241136,0.2153033820383267,0.14284802451011677
0.29440698135660454,0.3362376237623762,0.4234905376990087,0.685780309544282,0.4083865086599818,0.37728255948488354,0.6389330837622835,0.6084487042953496,0.477567917205692,0.3408008467101781,0.25772679685010697,0.1845918171953788
0.31812772709242365,0.33497029702970293,0.4036046860919195,0.6786328460877042,0.4494074749316317,0.3681774737159817,0.5469349555451567,0.5812566560170394,0.5121345407503234,0.3745369553713176,0.28804224134007006,0.21676134550328713
0.3376437921459739,0.3363564356435644,0.39098828477020126,0.671055460017197,0.47909884099492117,0.3637506916846924,0.5051006083294338,0.5698970536031238,0.5396636481241914,0.3979096842476627,0.3087532432063362,0.23814386927937703
0.35454184847282827,0.33647524752475244,0.37825172724541906,0.6652515047291487,0.5068368277119416,0.35846873585190403,0.520542817033224,0.5826766063187787,0.565640362225097,0.4180631504674545,0.3268241613182211,0.25793068232590793
0.36905989686632296,0.33239603960396036,0.36112946830880144,0.6631018916595013,0.5371793202239875,0.3487599979878263,0.5500233972859148,0.6088746893858715,0.5897542043984475,0.43618804021873336,0.34225499567572487,0.2747813876300504
0.3713605712019041,0.32055445544554456,0.3414839291078402,0.6703568357695614,0.5604896470894647,0.33301473917199054,0.5610669162377163,0.6213702520411785,0.6009831824062095,0.44319985888163693,0.34758068186990754,0.27854726495180954
0.36747322491074974,0.31235643564356436,0.3319315109642535,0.6772355975924333,0.5675218127360333,0.3238090447205594,0.5547028544688816,0.6151934682286119,0.5975161707632599,0.43971599929440813,0.3431198506987118,0.27120699559583833
0.37223324077746933,0.31362376237623757,0.33024932412135777,0.6747635425623387,0.5732517254850892,0.3239096534030887,0.5536733738886288,0.61242456514022,0.5965329883570504,0.4382166166872464,0.3417998088215212,0.2671858045573498
0.38397461324871085,0.31940594059405936,0.3301291679182938,0.6668637145313844,0.5831488475061856,0.32748126163287894,0.5649976602714085,0.6212282570110047,0.6045019404915911,0.4454489327923795,0.34862761163457595,0.2759302993553328
0.39127330424434753,0.3224554455445544,0.3292880744968459,0.6622957867583835,0.5900507878630029,0.3290910005533477,0.5764155357978474,0.6294639687610933,0.6122639068564036,0.4519756570823778,0.3557285265601529,0.28410033829067466
0.3859579531931773,0.31829702970297025,0.3269450285370982,0.6669174548581255,0.5882276338064852,0.32546908798229285,0.572391202620496,0.627831025914093,0.6119534282018111,0.45060857294055384,0.35500022759342703,0.28256845599029806
0.3767552558508529,0.3128712871287128,0.3256833884049264,0.6737424763542562,0.5819768198984242,0.3214950450223854,0.5622835751052877,0.6195243166489173,0.6056403622250969,0.44584582818839297,0.34967454139924437,0.27471755920086804
0.3794525981753273,0.3147722772277228,0.32646440372484226,0.6715391229578677,0.5834092980856882,0.32300417526032493,0.5586335985025737,0.6151934682286119,0.6032600258732211,0.44430234609278524,0.34771723792616865,0.2719729367460267
0.3919873066243555,0.32158415841584154,0.32742565334935414,0.6626719690455718,0.5925250683682771,0.32773278333920214,0.5679925128685073,0.6240681576144834,0.6102975420439843,0.4492414887987299,0.35377122308707726,0.2809089168315567
0.4003966679888934,0.32483168316831684,0.3258636227095224,0.6576203783319002,0.6011199374918609,0.32919160923587704,0.5759475900795508,0.6310259140930068,0.6165071151358343,0.45475392485447164,0.3593245027083617,0.2885683283334397
0.3938119793732646,0.32051485148514847,0.3243616701712226,0.6627794496990542,0.597343404089074,0.3258212183711454,0.5711745437529246,0.6264820731274405,0.6143855109961189,0.45413653201622856,0.35800446083117116,0.28499393629922765
0.38516461721539075,0.31520792079207915,0.3228597176329228,0.6692820292347378,0.5918739419195207,0.32179687106997334,0.5588207767898924,0.6150514731984381,0.6056921086675291,0.44725701181866284,0.3514497701306386,0.2759941277845152
0.3858786195953987,0.3175445544554455,0.3258636227095224,0.6674548581255374,0.5892694361244953,0.32456360983952914,0.5558259241927936,0.6113596024139155,0.6023803363518757,0.4447874404656905,0.3494924666575629,0.2744622454841386
0.39714399047996835,0.3239603960396039,0.3270651847401622,0.6593400687876182,0.5972131787993228,0.3291413048946124,0.5642489471221338,0.6203052893148739,0.6087451487710219,0.45056447345210787,0.35527333970594926,0.2830152549945745
0.4034906783022611,0.3277227722772277,0.3279663562631421,0.6546109200343938,0.6015106133611147,0.3318577393229036,0.573795039775386,0.6288249911253107,0.6154204398447606,0.4568707002998765,0.3615093996085393,0.2916320929341929
0.3919079730265768,0.3217425742574257,0.3276659657554821,0.6626182287188306,0.5922646177887746,0.32793400070426076,0.5673373888628919,0.6228611998580049,0.6117464424320826,0.45493032280825535,0.35873275979789704,0.2878023871832514
0.3781832606108687,0.3145346534653465,0.3271252628416942,0.6721302665520206,0.5815861440291704,0.32315508828411893,0.5513336452971455,0.6085906993255236,0.601914618369987,0.4475657082377844,0.351131139332696,0.2766962405055211
0.37707259024196754,0.31504950495049505,0.328747371583058,0.6721840068787618,0.5788514129443937,0.32416117510941195,0.5455311183902667,0.6039048633297834,0.5980336351875808,0.44355265478920436,0.34853657426373524,0.2731218484713091
0.3869892899642999,0.32055445544554456,0.32958846500450584,0.6650902837489252,0.5861440291704648,0.3280346093867901,0.5555451567618156,0.6122115725949592,0.6034670116429495,0.44849179749514895,0.3544995220538031,0.2814195442650156
0.39555731852439513,0.3243168316831683,0.3288074496845899,0.6596087704213242,0.5939575465555411,0.3300970873786408,0.5659335517080019,0.6211572594959176,0.6110219922380336,0.4551067207620391,0.3615093996085393,0.2915682645050105
0.39103530345101156,0.3211485148514851,0.32742565334935414,0.663316852966466,0.5918739419195207,0.32748126163287894,0.5625643425362657,0.6174653887113951,0.6091073738680465,0.45457752690068787,0.36014383904592834,0.2914406076466458
0.3793732645775486,0.3158415841584158,0.32820666866927006,0.6708404987102321,0.5813256934496678,0.32446300115699983,0.5481516144127281,0.6056798012069577,0.6000517464424321,0.4481831010760275,0.353498110974555,0.2824407991319334
0.3798492661642206,0.3167524752475247,0.3292880744968459,0.6700343938091143,0.5806745670009115,0.32546908798229285,0.5404773046326626,0.6003549875754348,0.5968952134540749,0.445184335861704,0.35176840092858114,0.2798238335354567
0.3907973026576756,0.32253465346534643,0.32970862120756983,0.662457007738607,0.5891392108347441,0.32929221791840635,0.5477772578380907,0.6081647142350018,0.6028460543337645,0.45109366731345907,0.35782238608948974,0.28773855875406906
0.39428798095993656,0.3243960396039604,0.32988885551216585,0.6599849527085125,0.5917437166297694,0.3305498264500226,0.555357978474497,0.6155484558040469,0.6089003880983181,0.4576203916034573,0.3635122217670354,0.2955256271143167
0.38817929393097983,0.3201584158415841,0.32808651246620607,0.6649290627687016,0.5887485349654903,0.32712913124402637,0.54927468413664,0.6105786297479588,0.6060025873221215,0.455194919738931,0.36187354909190217,0.2945682006765813
0.37929393097977,0.3148514851485148,0.32676479423250226,0.6715391229578677,0.5828883969266831,0.32320539262538356,0.5340196537201684,0.5991480298189563,0.5979301423027166,0.4492414887987299,0.3564568255268788,0.2870364460330631
0.38207060690202305,0.31615841584158416,0.3266446380294383,0.6697119518486672,0.5853626774319572,0.3239599577443533,0.5263453439401029,0.5959531416400426,0.5953428201811125,0.44805080261068964,0.3555009331330511,0.286653475457969
0.39492264974216584,0.32209900990099005,0.3259237008110544,0.6613284608770421,0.5965620523505665,0.32748126163287894,0.531960692559663,0.6036208732694355,0.6022250970245795,0.45470982536602567,0.3614183622376986,0.2955256271143167
0.4034906783022611,0.3264158415841584,0.3259837789125864,0.655524505588994,0.6035942179971351,0.3302480004024347,0.5390734674777725,0.609939652112176,0.6083829236739974,0.46066325630622673,0.3681096089944922,0.3042701219122997
0.39960333201110676,0.32407920792079203,0.32538299789726643,0.658426483233018,0.6009897122021095,0.32848734845817196,0.5324286382779597,0.605040823571175,0.6060543337645536,0.45920797318751094,0.3666074923756201,0.30267441118274074
0.3964299880999604,0.32205940594059407,0.32472213878041456,0.6608447979363714,0.5991665581455917,0.32692791387896775,0.5190453907346747,0.5950301739439119,0.5993790426908149,0.45470982536602567,0.3616914743502207,0.29546179868513434
0.4012693375644586,0.32340594059405936,0.32310003003905075,0.6582652622527945,0.6048964708946477,0.3270788269027617,0.5099672437997192,0.5907703230386937,0.5977749029754204,0.454533427412242,0.36123628749601705,0.29463202910576364
0.4119000396667989,0.32950495049504946,0.3243015920696906,0.6505266552020637,0.6123193124104701,0.331505608934051,0.5179223210107627,0.6007099751508697,0.6070375161707632,0.46273593226318566,0.370203468523829,0.306631773792047
0.41792939309797705,0.33108910891089105,0.32213878041453886,0.6474097162510748,0.6196119286365412,0.33155591327531564,0.5241927936359382,0.6093716719914803,0.6145924967658473,0.469835949902981,0.37880650006827804,0.3169719793195889
0.4152320507735026,0.3275643564356436,0.3188344848302794,0.6507416165090284,0.6210444068238051,0.32793400070426076,0.5152082358446419,0.6053248136315229,0.6140232858990944,0.470585641206562,0.3795803177204242,0.31678049403204184
0.414914716382388,0.3253465346534653,0.3156503454490838,0.652353826311264,0.6241698137778355,0.3252175662759696,0.49939167056621425,0.5968051118210863,0.6096248382923674,0.4683365672958193,0.3769402339660431,0.3133337588561946
0.4250694168980564,0.32807920792079204,0.3121658155602283,0.6470335339638864,0.6362807657247037,0.32551939232355753,0.4922788956481048,0.5963791267305644,0.611901681759379,0.4719968248368318,0.3815376211934999,0.31875917533669496
0.43942879809599367,0.3346534653465346,0.3112646440372484,0.6377364574376612,0.6490428441203281,0.32929221791840635,0.49929808142255494,0.6085906993255236,0.6215265200517464,0.48350679132122065,0.3941918157403614,0.334460968915555
0.4483934946449822,0.33833663366336625,0.3100630820066086,0.632201203783319,0.6577679385336632,0.3311031742039338,0.5049134300421151,0.6183883564075257,0.6320310478654592,0.4939142705944611,0.4062542673767581,0.349269164485862
0.4491868306227688,0.33512871287128715,0.30459597476719735,0.6340821152192606,0.6642792030212267,0.32682730519643843,0.49480580252690687,0.6169684061057863,0.633842173350582,0.49744222967013574,0.4099412808958078,0.35341801238271525
0.4515668385561286,0.3331881188118812,0.29984980474617,0.6346195184866724,0.6713113686677953,0.3235575230142361,0.47664950865699574,0.6122115725949592,0.6332729624838292,0.4984124184159463,0.41171650962720197,0.35533286525818597
0.46100753669178907,0.3361584158415841,0.2972063682787624,0.6294067067927773,0.6819898424273994,0.3243623924744706,0.46785212915301827,0.6148384806531771,0.6385510996119016,0.5049391427059445,0.4186353498110974,0.3645879874896279
0.47885759619198737,0.3449108910891089,0.29690597777110245,0.6174226139294927,0.6969657507487954,0.32979526133105286,0.4732802994852597,0.6288249911253107,0.6517981888745148,0.5190068795201975,0.4331558104601939,0.3832897172400587
0.49234430781435945,0.35152475247524745,0.29678582156803845,0.6083404987102322,0.7081651256674046,0.33397052165601887,0.4776789892372484,0.6414625488107916,0.6640103492884863,0.5311783383312754,0.44658382265920155,0.3992468245356482
0.4891709639032131,0.3494653465346534,0.2961249624511866,0.6108662940670678,0.7062117463211356,0.3323607827355501,0.47131492746841364,0.6400425985090522,0.6637516170763259,0.5323690245193156,0.4478583458509718,0.39982128039828935
0.4864736215787387,0.3466138613861386,0.2937218383899069,0.6136607910576096,0.7066024221903893,0.3295437396247296,0.4552175947590079,0.635427760028399,0.661940491591203,0.5335156112189098,0.4488142382447995,0.4001404225442012
0.49472431574771925,0.34998019801980196,0.292640432562331,0.6086092003439381,0.7145461648652168,0.33125408722772776,0.44978942442676645,0.6403265885694001,0.6689780077619664,0.5405715293702592,0.45605170922663757,0.41028914278419604
0.510353034510115,0.35885148514851484,0.2942625413036948,0.5972699914015477,0.7257455397838259,0.3375421298858091,0.4555919513336452,0.6550230741924032,0.6839327296248382,0.5526988886928911,0.4699349082798489,0.4293738431097211
0.5199523998413329,0.36392079207920786,0.2946230099128867,0.5906061908856406,0.7331683812996483,0.34091252075054074,0.45886757136172196,0.6666666666666666,0.6948512289780077,0.5631063679661316,0.4809049114661569,0.4426501563796515
0.5201110670368903,0.3636039603960396,0.2940823069990988,0.5907674118658641,0.7338195077484047,0.34051008602042354,0.4515676181562938,0.6676606318778842,0.6990944372574385,0.5676045157876167,0.48491055578314896,0.44852237186442845
0.5214597381991274,0.363089108910891,0.29227996395313904,0.5906599312123817,0.7369449147024352,0.33940339051260127,0.44071127749181094,0.6639687610933617,0.698214747736093,0.5685306050449814,0.48522918658109154,0.4495436267313461
0.529234430781436,0.3688316831683168,0.29510363472514267,0.5841573516766981,0.740200546946217,0.34423260727400773,0.43621899859616275,0.6664536741214057,0.7026649417852522,0.5724113600282236,0.4906914288315353,0.45707538137486436
0.5401031336771123,0.37825742574257426,0.30123160108140584,0.5740541702493551,0.7425446021617398,0.35278434528899844,0.4429574169396349,0.678452254171104,0.7139456662354463,0.5820250485094373,0.5018435067595248,0.4714367779408949
0.5435144783815946,0.385069306930693,0.30892159807750075,0.568250214961307,0.7370751399921864,0.3603299964786961,0.44950865699578846,0.6902378416755414,0.7233117723156531,0.5893455635914623,0.5103099822477126,0.4837556647730899
0.5328044426814756,0.3834851485148515,0.3146290177230399,0.5729793637145314,0.7220992316707904,0.3616882136928417,0.4414599906410856,0.6883209087681932,0.7220181112548512,0.5881107779149761,0.5087168282579999,0.4824152677602604
0.5223324077746926,0.38249504950495045,0.32105737458696304,0.5772248495270852,0.706472196900638,0.363800996025957,0.43238184370613,0.681150159744409,0.7174644243208278,0.5823337449285588,0.5009331330511174,0.4735431161039127
0.5219357397857993,0.388079207920792,0.3298287774106338,0.5735167669819432,0.6967053001692929,0.3709945168268022,0.4394010294805802,0.6824991125310614,0.7164812419146184,0.578144293526195,0.4959715963402977,0.46633050360630623
0.5198730662435542,0.3951683168316832,0.3421447882246921,0.569432502149613,0.6815991665581456,0.38065295034961516,0.4589611605053813,0.6924387646432374,0.7195860284605433,0.5770418063150466,0.4934225499567572,0.4637773664390119
0.5119397064656883,0.3965544554455445,0.350255331931511,0.5712059329320722,0.6662325823674957,0.3849288193571105,0.4791764155357978,0.696414625488108,0.7190685640362224,0.571441171282413,0.4865037097728618,0.4546499010659347
0.4951209837366125,0.38998019801980194,0.3530790027035146,0.5813091143594153,0.649433519989582,0.38191055888123143,0.48591483387927,0.6852680156194534,0.7066494178525226,0.5559622508378902,0.4694797214256452,0.43237377928129184
0.4742562475208251,0.3801980198019802,0.35404025232802644,0.595066638005159,0.6313322047141555,0.3761255596357966,0.48460458586803923,0.6673056443024494,0.6872445019404915,0.5358528841065443,0.4482680140197551,0.4059488095997957
0.46386354621182074,0.37742574257425743,0.35764493841994593,0.6004406706792776,0.6188305768980334,0.3758740379294733,0.49546092653252216,0.6572949946751864,0.6744113842173349,0.5216528488269535,0.4327461422914106,0.3881406778579179
0.4626735422451409,0.37813861386138614,0.35968759387203364,0.6003331900257954,0.615705169944003,0.3771819508023542,0.514927468413664,0.6578629747958821,0.6679430789133246,0.5133180455106721,0.42377896126359865,0.3778643007595583
0.4541055136850457,0.37382178217821777,0.35956743766896965,0.6061908856405848,0.6088032295871858,0.37441521203279843,0.5310248011230697,0.6553780617678381,0.6588357050452781,0.5038807549832421,0.4146297054941053,0.3660560413608221
0.43506545021816745,0.36293069306930686,0.357404626013818,0.6200558899398109,0.595390024742805,0.36656773479551286,0.5301824988301357,0.6397586084487042,0.6418111254851228,0.48831363556182744,0.39869816559697757,0.3468436841769324
0.41610472034906787,0.35255445544554453,0.35608290778011414,0.6334909716251075,0.5813256934496678,0.35942451833593236,0.5231633130556855,0.6202342917997871,0.6226649417852522,0.4719086258599399,0.3814921025080796,0.3272483564179485
0.41499404998016665,0.3518019801980197,0.3557224391709222,0.6343508168529663,0.5808047922906627,0.3587705618994919,0.5259709873654655,0.6120695775647852,0.613816300129366,0.4627800317516316,0.37343529518867496,0.3161422097402183
0.4249900833002777,0.35714851485148513,0.35632322018624213,0.6273645743766122,0.5883578590962364,0.3624427788118115,0.5395414131960692,0.6154774582889598,0.6148512289780077,0.4619862409596048,0.3721607719969047,0.3168443224612242
0.4264180880602936,0.35726732673267325,0.35536197056173024,0.6267734307824592,0.5905716890220081,0.3621409527642236,0.5503977538605521,0.6167554135605254,0.614437257438551,0.46013406244487554,0.37038554326551043,0.31741877832386545
0.4147560491868307,0.34934653465346527,0.3522379092820667,0.6361242476354256,0.5844511004036984,0.35575230142361286,0.5438465138043986,0.6070997515086971,0.6042949547218628,0.4518874581054859,0.3625563293732077,0.30675943065041167
0.4061880206267354,0.3421782178217821,0.3478522078702313,0.6438628546861564,0.5821070451881756,0.3494139544242668,0.5320542817033224,0.5950301739439119,0.593169469598965,0.44209737167048857,0.3525877372661477,0.29507882811004016
0.4059500198333995,0.3425346534653465,0.3485731450886152,0.6437016337059329,0.5811954681599166,0.3499169978369133,0.5343004211511464,0.59226127085552,0.5892884864165588,0.439142705944611,0.34958350402840366,0.2909938086423693
0.41245537485124956,0.3464158415841584,0.3495343947131271,0.6389187446259673,0.5853626774319572,0.35278434528899844,0.5458118858212447,0.5990770323038694,0.5926002587322121,0.44161227729758323,0.35322499886203285,0.2959724261185932
0.41245537485124956,0.345980198019802,0.3488735355962752,0.6391874462596733,0.5861440291704648,0.3522309975350873,0.5526438933083762,0.6041888533901314,0.5952393272962483,0.4434203563238666,0.3550912649642678,0.2994191612944405
0.4023800079333599,0.3406336633663366,0.34833283268248727,0.6462274290627686,0.57846073707514,0.3486090849640324,0.5469349555451567,0.5965921192758253,0.5898059508408796,0.43790792026812486,0.349629022713824,0.29297248994702235
0.3963506545021817,0.3363168316831683,0.3464103334334635,0.6512252794496991,0.575595780700612,0.3450374767342422,0.5363593823116518,0.5860844870429535,0.5816817593790425,0.43142529546657254,0.34257362647366746,0.2837811961447628
0.39904799682665615,0.33849504950495046,0.34767197356563534,0.6488069647463457,0.5765073577288709,0.3469490417022989,0.5346747777257838,0.5862264820731274,0.5819922380336351,0.4306756041629916,0.3415722153944194,0.28250462756111566
0.40896469654898854,0.3451089108910891,0.35019525382997896,0.6409608770421324,0.5818465946086729,0.3522309975350873,0.5449695835283106,0.5977990770323038,0.5892367399741267,0.4366731345916387,0.34758068186990754,0.292015063509287
0.41483538278460935,0.3476831683168316,0.3496545509161911,0.6372527944969906,0.587185831488475,0.3536395190904975,0.5507721104351895,0.6044728434504792,0.5933247089262613,0.4403774916210972,0.3519504756702626,0.29718516627305797
0.4073780245934154,0.3436039603960396,0.3490537699008711,0.6425193465176269,0.5817163693189217,0.35082247597967703,0.5440336920917174,0.5965921192758253,0.5877360931435963,0.436452637149409,0.34799035003869083,0.2904831812089104
0.4028560095200318,0.340039603960396,0.3471913487533794,0.6464961306964746,0.5800234405521552,0.3477539111625333,0.5336452971455311,0.5884274050408236,0.5824579560155239,0.43248368318927494,0.34407574309253947,0.28505776472841
0.40769535898452997,0.3428118811881188,0.34761189546410337,0.6429492691315563,0.5835395233754395,0.3497157804718547,0.5346747777257838,0.5902023429179979,0.5839586028460543,0.43468865761157166,0.346260639992717,0.2873555881789749
0.4160253867512892,0.3475247524752475,0.3485130669870832,0.6369303525365434,0.5893996614142466,0.3530861713365863,0.5444080486663546,0.5994320198793042,0.590737386804657,0.4409066854824484,0.35240566252446626,0.2959085976894108
0.42165807219357404,0.3492277227722772,0.34683088014418745,0.6338671539122958,0.5959109259018102,0.3534383017254389,0.5493682732802995,0.6052538161164359,0.5961190168175937,0.44483153995413643,0.3573671992352861,0.3021637837492819
0.414676715589052,0.34396039603960393,0.34412736557524787,0.6398323301805675,0.5930459695272822,0.34896121535288493,0.5406644829199811,0.5986510472133475,0.5917723156532988,0.4429352619509613,0.35477263416632526,0.29820642113997575
0.4110273700912337,0.3402376237623762,0.34130369480324424,0.6435404127257094,0.5931761948170334,0.3453896071230947,0.5292466073935423,0.5902023429179979,0.5868564036222509,0.44002469571352965,0.3512676953889572,0.2931001468053871
0.4203094010313368,0.34518811881188116,0.34172424151396813,0.6370378331900258,0.6003385857533532,0.3487096936465617,0.530276087973795,0.5927582534611289,0.5893402328589908,0.44324395837008285,0.35422640994128085,0.2966107104104168
0.4341927806426022,0.35295049504950493,0.34298588164613997,0.6270958727429062,0.6103659330642011,0.35419286684440865,0.5406644829199811,0.6046148384806531,0.5980336351875808,0.4506967719174457,0.362465292002367,0.3073338865130529
0.4387941293137644,0.3553267326732673,0.34310603784920396,0.6239251934651762,0.6140122411772365,0.35575230142361286,0.5474964904071127,0.6102946396876109,0.6035705045278136,0.45585641206561994,0.36788201556739036,0.31218484713091205
0.43585878619595403,0.35097029702970295,0.33872033643736854,0.6279019776440241,0.6163562963927594,0.3511746063685296,0.5384183434721572,0.6030528931487398,0.5990685640362224,0.4528576468512964,0.36583367472347395,0.30829131295078827
0.4300674335581119,0.345980198019802,0.335476118954641,0.6332222699914015,0.615184268784998,0.34659691131344633,0.5271876462330369,0.5954561590344338,0.59379042690815,0.4476098077262303,0.3619190677773226,0.30267441118274074
0.43276477588258633,0.34629702970297027,0.3340342445178732,0.6320937231298367,0.6188305768980334,0.34624478092459376,0.5278427702386522,0.597444089456869,0.5950840879689521,0.44835949902981115,0.36328462833993347,0.30599348950022337
0.43942879809599367,0.35077227722772275,0.335716431360769,0.6268271711092003,0.6224768850110691,0.3497660848131194,0.5395414131960692,0.6084487042953496,0.6028460543337645,0.4549744222967013,0.3697938003550457,0.31454649901065934
0.44046013486711627,0.35140594059405933,0.33589666566536497,0.6260210662080825,0.6232582367495767,0.3502188238845012,0.54506317267197,0.6130635427760028,0.6065717981888744,0.45854648086082195,0.37307114570531197,0.31831237633241843
0.4253074176913923,0.344,0.33613697807149295,0.6361779879621668,0.6104961583539522,0.345641128829418,0.5342068320074871,0.6040468583599574,0.5999482535575679,0.45263714940906674,0.3675178660840275,0.3094402246760707
0.4203094010313368,0.3403960396039603,0.33445479122859717,0.6403159931212381,0.6081521031384295,0.3426731726948036,0.5218530650444548,0.5933262335818246,0.5931177231565329,0.44738931028400064,0.3619190677773226,0.30197229846173484
0.42633875446251496,0.34166336633663363,0.33181135476118956,0.6374140154772141,0.6160958458132569,0.342321042305951,0.5226953673373889,0.5935392261270855,0.5953945666235446,0.44835949902981115,0.3625108106877873,0.30350418076211144
0.432844109480365,0.34495049504950487,0.3318714328627215,0.6330073086844368,0.6213048574033077,0.344484128980331,0.5341132428638278,0.6045438409655662,0.602587322121604,0.454533427412242,0.3684737584778552,0.3113550775515414
0.433082110273701,0.34495049504950487,0.33163112045659354,0.6328998280309545,0.6216955332725614,0.34433321595653704,0.5408516612072999,0.6093006744763932,0.6054333764553687,0.45739989416122767,0.37034002458009013,0.3135252441437416
0.42459341531138445,0.3396039603960396,0.3300090117152298,0.6394024075666379,0.6164865216825107,0.34030886865536497,0.5337388862891904,0.6016329428470004,0.5995860284605433,0.4524607514552831,0.3645591515317037,0.3068870875087764
0.4174533915113051,0.33528712871287125,0.32886752778612194,0.6447226999140154,0.6119286365412163,0.3370390864731626,0.5239120262049602,0.5911963081292155,0.5924967658473479,0.4465955194919738,0.3586872411124767,0.29814259271079335
0.4245140817136058,0.3384554455445544,0.32832682487233406,0.6402085124677558,0.6183096757390285,0.3388500427586901,0.528029948525971,0.594817181398651,0.5941526520051745,0.4474775092608925,0.36055350721471163,0.2999936171570817
0.4349861166203888,0.34435643564356433,0.3293481525983779,0.6326311263972485,0.6258627425446021,0.34302530308365614,0.5392606457650913,0.6066027689030884,0.6004139715394566,0.4528576468512964,0.36637989894851836,0.3080998276632412
0.4322887742959144,0.3447524752475248,0.3319915890657855,0.633329750644884,0.6206537309545513,0.3443835202978017,0.545624707533926,0.6106496272630458,0.6040879689521345,0.4551067207620391,0.3688834266466385,0.3109721069764473
0.4225307417691393,0.33936633663366333,0.3312105737458696,0.640262252794497,0.6134913400182316,0.34066099904421754,0.5359850257370145,0.6004969826056088,0.5978266494178525,0.4493737872640677,0.363466703081615,0.303248867045382
0.4159460531535105,0.3359999999999999,0.33103033944127364,0.6447764402407566,0.6082823284281808,0.3383973036873082,0.5248479176415535,0.5909123180688676,0.59006468305304,0.44311165990474505,0.357230643179025,0.2955256271143167
0.4185640618802063,0.3401584158415841,0.335476118954641,0.6410683576956148,0.6056778226331553,0.34292469440112683,0.5298081422554983,0.5946041888533902,0.5917723156532988,0.44430234609278524,0.3579134234603304,0.2966107104104168
0.428639428798096,0.3472871287128712,0.33860018023430455,0.632792347377472,0.6106263836437036,0.3487599979878263,0.5421619092185306,0.6051118210862619,0.5977749029754204,0.4504321749867701,0.3631025535982521,0.3043339503414821
0.42959143197143995,0.3501782178217821,0.34226494442775607,0.6305352536543423,0.6073707513999218,0.352130388852558,0.5500233972859148,0.6093006744763932,0.6003104786545924,0.4529899453166343,0.3659247120943147,0.30905725410097656
0.4209440698135661,0.3455445544554455,0.3417843196155001,0.6366079105760962,0.6007292616226071,0.34901151969414956,0.5418811417875526,0.6017039403620873,0.5945148771021991,0.44791850414535184,0.36059902590013193,0.3022276121784643
0.41618405394684654,0.3421782178217821,0.34028236707720033,0.6404772141014617,0.5985154316968354,0.34619447658332914,0.5299017313991576,0.5907703230386937,0.5861836998706338,0.4418768742282589,0.35345259228913467,0.2927810046594753
0.42189607298691,0.34558415841584156,0.34118353860018025,0.636231728288908,0.6022919650996224,0.3487599979878263,0.5314927468413664,0.5919062832800852,0.586287192755498,0.44161227729758323,0.3531794801766125,0.29303631837620475
0.4278460928203095,0.35073267326732666,0.3444277560829078,0.6307502149613069,0.6035942179971351,0.35338799738417426,0.5416003743565746,0.6006389776357828,0.5929624838292367,0.4454048333039336,0.35814101688743233,0.30005744558626407
0.4232447441491472,0.3501386138613861,0.3470111144487834,0.6327386070507308,0.5969527282198203,0.35409225816187934,0.5457182966775853,0.6027689030883919,0.5947736093143595,0.44641912153819013,0.35941554007920257,0.3006957298780877
0.4131693772312575,0.3451485148514851,0.3470111144487834,0.6395098882201203,0.5887485349654903,0.35092308466220634,0.5372952737482452,0.5945331913383031,0.5887192755498059,0.4412594813900158,0.35377122308707726,0.2937384310972107
0.4090440301467672,0.3422178217821782,0.34574947431661157,0.6428955288048152,0.5867951556192212,0.34855878062276774,0.5284978942442676,0.5880014199503016,0.5816300129366105,0.4355706473804903,0.34817242478037236,0.2861428480245101
0.4182467274890917,0.3474455445544554,0.34671072394112346,0.636231728288908,0.5933064201067847,0.3522813018763519,0.530556855404773,0.594746183883564,0.5860284605433376,0.43883400952548945,0.3507214711639128,0.29061083806727517
0.43506545021816745,0.3575841584158415,0.34935416040853107,0.6236564918314703,0.6042453444458914,0.3598269530660496,0.5367337388862892,0.6088746893858715,0.5969987063389391,0.44783030516845995,0.3597341708771451,0.30292972489947023
0.44418881396271326,0.3646336633663366,0.3531390808050466,0.6158104041272572,0.6075009766896731,0.3658634740178077,0.5375760411792232,0.615122470713525,0.6044501940491591,0.4533868407126476,0.3656515999817925,0.3104614795429884
0.44307814359381203,0.36819801980198014,0.3594472814659057,0.6137145313843508,0.5998176845943481,0.37079329946174355,0.532241459990641,0.612495562655307,0.6046571798188873,0.4528576468512964,0.3645136328462834,0.30861045509670004
0.4343514478381595,0.3697821782178218,0.36839891859417245,0.6156491831470335,0.5828883969266831,0.37552190754062076,0.5245671502105755,0.6057507987220447,0.601914618369987,0.44999118010231076,0.3607355819563931,0.30388715133720556
0.43696945656485525,0.37750495049504945,0.37813157104235506,0.6094690455717972,0.5745539783826018,0.3845263846269933,0.531118390266729,0.6091586794462194,0.6076067270375161,0.454533427412242,0.3641950020483408,0.30829131295078827
0.44704482348274505,0.38724752475247515,0.3852808651246621,0.5994733447979363,0.575074879541607,0.39368177473715976,0.545905474964904,0.6284700035498758,0.6216300129366105,0.46489680719703647,0.37430015021166185,0.31952511648688325
0.454264180880603,0.3919207920792078,0.38690297386602585,0.5938306104901118,0.5792420888136476,0.3973539916494793,0.5387927000467946,0.6420305289314873,0.6318758085381629,0.4714676309754806,0.38080932222677405,0.32731218484713087
0.45228084093613646,0.39140594059405937,0.38762391108440974,0.5948516766981943,0.5767678083083735,0.3973036873082147,0.4985493682732802,0.6318778842740503,0.6291849935316947,0.47085023813723753,0.38026309800172964,0.3262909299802132
0.45013883379611275,0.3911683168316832,0.3888855512165816,0.5957652622527945,0.5736424013543429,0.3976558176970672,0.4627983153954141,0.6097976570820021,0.6201811125485122,0.466528488269536,0.3764850471118394,0.3225250526584541
0.45347084490281636,0.3963564356435643,0.39423250225292883,0.5911435941530524,0.5706472196900637,0.4031892952361789,0.45605989705194194,0.5995030173943912,0.6156274256144889,0.46463221026636087,0.3763484910555783,0.32348247909618943
0.46441888139627135,0.4074059405940593,0.4027035145689396,0.5799118658641443,0.5705169944003124,0.4137532069017556,0.45634066448292,0.597373091941782,0.6151617076326001,0.467189980596225,0.38062724748509263,0.3320993170358077
0.47092423641412146,0.41287128712871285,0.40606788825473117,0.5740004299226139,0.5720796978773277,0.41868303234569143,0.46008423022929335,0.5933972310969117,0.6111772315653299,0.4657346974775092,0.381173471710137,0.33573753749920215
0.4620388734629116,0.4104950495049504,0.40919194953439475,0.578622098022356,0.5614012241177236,0.4184818149806328,0.4479176415535797,0.5740859069932552,0.5968434670116428,0.45541541718116063,0.37134143565933814,0.3271206995595838
0.45093216977389927,0.4068514851485149,0.41213577650946226,0.5848559759243337,0.5491600468811043,0.4173751194728104,0.4355638745905474,0.5530706425275115,0.5786804657179818,0.44152407832069146,0.3578679047749101,0.3133337588561946
0.44783815946053157,0.40328712871287126,0.40901171522979873,0.5883490971625107,0.5499413986196119,0.4138035112430203,0.4422087037903603,0.5475328363507277,0.5704010349288485,0.4349973540306932,0.3522691064682052,0.30695091593795876
0.450773502578342,0.4028118811881188,0.40606788825473117,0.5876504729148754,0.5555410860789165,0.41229438100508076,0.4550304164716893,0.5532126375576855,0.5720569210866752,0.43618804021873336,0.35545541444763074,0.31071679325971785
0.4531535105117018,0.3994851485148514,0.3991589065785521,0.5891014617368874,0.5650475322307592,0.40726394687861556,0.4546560598970519,0.5552715654952076,0.5723156532988357,0.4376874228258952,0.3575492739769675,0.3154400970192124
0.4553748512495043,0.39108910891089105,0.3848002403124061,0.5940455717970765,0.582367495767678,0.3958951657528045,0.4430510060832943,0.5471778487752929,0.5652263906856403,0.4331892750044099,0.35495470890800673,0.31339758728537687
0.4580721935739786,0.38661386138613857,0.3759687593872034,0.5961414445399827,0.5942179971350435,0.3893556013883998,0.4364997660271408,0.5402200922967696,0.5597412677878395,0.4293526195096137,0.35231462515362555,0.310397651113806
0.4656088853629513,0.38978217821782174,0.3750675878642235,0.5914660361134996,0.6013803880713634,0.39101564465013333,0.44520355638745895,0.5429889953851615,0.5608279430789133,0.4307197036514376,0.35418089125586055,0.3144188421522946
0.46798889329631105,0.38978217821782174,0.37320516671673176,0.5906599312123817,0.6052871467639015,0.3902610795311635,0.46513804398689745,0.55193468228612,0.5659508408796895,0.433762568354207,0.35704856843734356,0.31716346460713596
0.45339151130503774,0.3827722772277227,0.3736857915289877,0.6003331900257954,0.5927855189477796,0.3859852105236682,0.4885353299017314,0.5640752573659922,0.5702457956015523,0.43561474686893625,0.3565478628977195,0.3117380481266356
0.4245140817136058,0.3733465346534653,0.38125563232201864,0.6165627687016337,0.5610105482484697,0.38316816741284776,0.5024801123069723,0.566986155484558,0.568745148771022,0.43168989239724814,0.34967454139924437,0.2985893917150699
0.40460134867116226,0.3647920792079208,0.3833583658756384,0.6290842648323302,0.542258106524287,0.37859047235776444,0.5100608329433786,0.562087326943557,0.5670375161707631,0.4263538542952901,0.3424825891028267,0.28697261760388076
0.4003173343911147,0.35821782178217826,0.3766296185040553,0.6349957007738607,0.5460346399270738,0.37159816892197794,0.5245671502105755,0.5702520411785588,0.5714877102199223,0.42825013229846526,0.3424825891028267,0.2845471372949512
0.40753669178897267,0.3557227722772277,0.36737759086812855,0.6342433361994841,0.56205235056648,0.3661653000653956,0.5430978006551239,0.5858004969826056,0.5803880983182406,0.4354824484035985,0.3473986071282261,0.2885683283334397
0.40610868702895686,0.3474059405940593,0.3559026734755182,0.6403697334479793,0.5733819507748404,0.3561044318124654,0.5505849321478707,0.5910543130990414,0.5827684346701163,0.43512965249603097,0.34762620055532795,0.28556839216186886
0.3933359777865927,0.3362772277227722,0.3485731450886152,0.6522463456577816,0.5707774449798151,0.3459429548770059,0.5449695835283106,0.5856585019524316,0.5760931435963778,0.4286029282060327,0.3407528790568528,0.2735048190464032
0.3854819516065054,0.33085148514851487,0.3464103334334635,0.6585877042132415,0.5667404609975257,0.34156647718698124,0.5383247543284978,0.5786297479588215,0.5711254851228977,0.4248985711765743,0.3352451181209886,0.26482415267760256
0.3902419674732249,0.3332277227722772,0.34635025533193153,0.6553632846087704,0.5706472196900637,0.34307560742492077,0.5466541881141788,0.584664536741214,0.5757826649417852,0.42825013229846526,0.3374300150211662,0.2685262015701793
0.4,0.33774257425742576,0.34574947431661157,0.6490219260533103,0.5793723141033988,0.3456914331706826,0.561815629386991,0.6009939652112176,0.5872186287192755,0.43535014993826066,0.343893668350858,0.2747813876300504
0.40087266957556533,0.3331881188118812,0.3382997897266446,0.6517626827171109,0.5880974085167339,0.33970521656018915,0.5759475900795508,0.6204472843450479,0.6007244501940491,0.44280296348562354,0.34821794346579266,0.27471755920086804
0.39611265370884574,0.32233663366336635,0.32538299789726643,0.6607910576096303,0.5981247558275817,0.32738065295034957,0.5778193729527374,0.6318068867589635,0.607503234152652,0.445184335861704,0.347262051071965,0.2664198634071615
0.39658865529551773,0.32269306930693065,0.32556323220186245,0.6603611349957008,0.5983852064070843,0.32768247899793757,0.5821244735610669,0.6469293574724885,0.6230271668822768,0.45528311871582283,0.3511766580181164,0.2639305546690496
0.414438714795716,0.3447920792079207,0.3455692400120156,0.6393486672398968,0.5913530407605156,0.3501182152019719,0.5982218062704725,0.691018814341498,0.6705304010349288,0.495237255247839,0.3859529336792753,0.2973128231314227
0.44545815152717183,0.3798415841584158,0.37530790027035144,0.6050623387790198,0.5845813256934497,0.3848282106745812,0.6160037435657463,0.7556265530706425,0.7492884864165588,0.5695889927676838,0.4590559424643816,0.37684304589264056
0.4927409758032527,0.4211089108910891,0.4020426554520877,0.561049011177988,0.594478447714546,0.42220433623421705,0.5883949461862423,0.7919062832800853,0.8257697283311771,0.6597724466396189,0.5546907005325686,0.48688325780302544
0.5619992066640223,0.47825742574257424,0.4362871733253229,0.49881771281169385,0.6141424664669879,0.4728105035464561,0.48348151614412727,0.7535676251331204,0.8510219922380335,0.7595695889927676,0.6807774591469798,0.6338801302099955
0.6352241174137249,0.559089108910891,0.5034544908380896,0.4191208082545142,0.6015106133611147,0.5522913627446049,0.35863359850257365,0.6575079872204472,0.8159379042690814,0.8290703827835595,0.7965769948563886,0.7836854535009893
0.6766362554541849,0.6329108910891089,0.5841393811955543,0.35506233877901977,0.5479880192733428,0.6329795261331053,0.2587739822180627,0.5301384451544195,0.7004398447606726,0.797362850590933,0.8135099458327644,0.8450884023744175
0.6629908766362556,0.6380198019801979,0.6021628116551517,0.35619088564058465,0.5172548508920433,0.6437446551637406,0.22545624707533923,0.41995030173943915,0.5122380336351875,0.6285941083083435,0.6749055487277528,0.7466011361460394
0.5568425228084094,0.6051881188118812,0.6327425653349354,0.4144453998280309,0.39692668316186996,0.6356959605613964,0.19007955077211042,0.23372381966631167,0.2476584734799482,0.34410830834362316,0.4130820701898129,0.5299674475011169
0.39214597381991273,0.577069306930693,0.714809252027636,0.48925193465176264,0.17293918478968606,0.6521957844962021,0.21469349555451564,0.08881789137380194,0.05635187580853814,0.09891515258422999,0.15417178751877644,0.2847386225824982
0.31003570011900045,0.48617821782178217,0.6391108440973265,0.5787295786758383,0.18752441724182828,0.5627546657276523,0.3927936359382311,0.2150514731984381,0.11197930142302712,0.07615981654612804,0.07169192953707497,0.1353162698665986
0.30067433558111867,0.39726732673267323,0.5113247221387803,0.6422506448839209,0.31827060815210306,0.4528396800643895,0.5940102948058025,0.45218317358892435,0.27813712807244495,0.17882342564826245,0.12635987072693336,0.10927427076019657
0.3183657278857597,0.36110891089108904,0.443075998798438,0.6607910576096303,0.40682380518296646,0.40127773026812213,0.6776789892372485,0.582250621228257,0.3930142302716688,0.26843358617040036,0.1944558241157995,0.1358907257292398
0.3366124553748513,0.3636039603960396,0.43298287774106337,0.6528912295786758,0.43273863784346916,0.3986619045223603,0.6389330837622835,0.5811146609868654,0.44781371280724447,0.32170576821308866,0.2432063362010105,0.1774430331269547
0.3640618802062674,0.3628910891089108,0.41117452688495043,0.6441315563198624,0.4789686157051699,0.3890537753408119,0.5518951801591014,0.5654952076677316,0.4936610608020698,0.3628946904215911,0.281168919841595,0.21631454649901063
0.3828639428798096,0.3586138613861386,0.3904475818564134,0.6406384350816853,0.5167339497330381,0.37768499421500074,0.5111839026672905,0.5563365282215121,0.52372574385511,0.3871935085553007,0.30210751513496287,0.2383353545669241
0.4034113447044824,0.3567920792079208,0.3721237608891559,0.6349419604471195,0.5534574814428962,0.36883143015242215,0.5297145531118389,0.5718139865104721,0.5505821474773609,0.407082377844417,0.3186763166279758,0.25429246186251353
