Lead I,Lead II,Lead III,aVR,aVL,aVF,V1,V2,V3,V4,V5,V6
0.11135263313901789,0.7546350248967052,0.9425583510154594,0.561015294500488,0.03266144083613289,0.9162173372044795,0.7312323612417686,0.42083271153559176,0.26685349034919237,0.13894730134454852,0.03846983223357918,0.0335345405767941
0.12656852089714454,0.7552706854539675,0.9311912700818431,0.5523375637270854,0.04684583799925348,0.9087515553712152,0.7319849482596424,0.42635427548127147,0.2676406687868006,0.1406359523354362,0.04265321085090785,0.04200963355892934
0.12844580575041992,0.740968322915563,0.9195968475295544,0.5586289185378024,0.05496453900709221,0.893716300290336,0.7281279397930386,0.42481221708202754,0.26578292767404516,0.1395208054546613,0.042265062319403114,0.04255838058654961
0.11303230906036954,0.710562559593177,0.9096695968475297,0.5827096214339951,0.053751399776035845,0.8720447946909997,0.7148635936030103,0.4156096105058946,0.25882427028558835,0.1327980628305614,0.033898305084745776,0.03493689409182368
0.10690643217073413,0.6913867994490942,0.9005759321006365,0.5958346892287667,0.056457633445315424,0.8564910825383658,0.6973659454374412,0.407551111774362,0.25274725274725274,0.12540623207799656,0.02471212317246736,0.024998475702701056
0.10789447683035275,0.689797648055938,0.898757199151258,0.5960516324981018,0.0580440462859276,0.8544172542513481,0.698494825964252,0.40650649156842267,0.25170817720960986,0.1233989676926018,0.022857635744166993,0.023169318943966833
0.11777492342653888,0.7034643500370801,0.9009548347984239,0.5836858661460029,0.06140350877192984,0.8627125673994193,0.7126999059266228,0.41287370044272004,0.2555496079851381,0.12623462690371506,0.02738603527838876,0.029205536247789772
0.11767611896057702,0.7062188791185506,0.9030009093664747,0.5822757348953248,0.060097051138484535,0.8654085441725424,0.7189087488240827,0.41546037904790334,0.25655719638527663,0.12690371503217995,0.028119204726786553,0.030912749222608383
0.1010769686789843,0.692128403432567,0.9056532282509852,0.5986549517301225,0.050578574094811535,0.8603276648693489,0.7123236124176857,0.4084465005223101,0.2506376145344627,0.12043586312368572,0.020701255013585215,0.02194988110481069
0.09238217567434048,0.683758872761945,0.9062594725674448,0.6077665690421955,0.046099290780141855,0.8566984653670676,0.7042333019755409,0.404765457891857,0.24610346673383926,0.11505129675651564,0.013024539612714029,0.013840619474422292
0.09771761683628101,0.6930818942684605,0.9089117914519552,0.599956611346133,0.046939156401642444,0.863023641642472,0.7079962370649105,0.4081977814256579,0.2472684908214994,0.11457337666475499,0.01216198732048131,0.012255350283519298
0.10265784013437408,0.7078080305117066,0.9156562594725675,0.5897602776873848,0.045166106756252336,0.8748444628784737,0.7266227657572907,0.4160573048798687,0.2502282817469064,0.11629388899509335,0.014490878509509655,0.017011157856228285
0.10087935974706057,0.7090793516262315,0.9179296756592906,0.5900856925913874,0.04292646509891754,0.8770219825798424,0.7359360301034806,0.4160075610605382,0.24956705185931546,0.11508315809596635,0.0132401776857722,0.017133101640143894
0.08951684616144649,0.7024049157749761,0.9218702637162776,0.5997396680767978,0.03508771929824562,0.876399834093737,0.7328316086547507,0.4130726757200418,0.24632387669636957,0.11039954119671191,0.006641652650191939,0.008901896225839886
0.07509139413101473,0.6977434050217183,0.9296756592906943,0.6100444733702136,0.023516237402015683,0.8795105765242638,0.731420507996237,0.4100383027408845,0.24317516294593658,0.10517428152679538,0.0,0.0
0.08151368441853572,0.7182964297065366,0.9393755683540468,0.5959431608634342,0.020530048525569257,0.8962048942347574,0.7419567262464722,0.4163060239765209,0.2467646966214302,0.10663990314152808,0.0020701255013585327,0.002377903786354489
0.0961367453808912,0.7388494543913549,0.9428614731736891,0.5775029829699534,0.025289287047405788,0.9086478639568644,0.7637817497648165,0.42958762373775056,0.25397525110992164,0.11234308290320524,0.009186181912278454,0.011096884336320955
0.1002865329512894,0.7474308719143977,0.9457411336768718,0.5707777416205663,0.025569242254572636,0.914765657403567,0.7809031044214486,0.4391384370491966,0.25882427028558835,0.11511501943541706,0.013542070988053653,0.01652338272056582
0.08773836577413298,0.7439347388494544,0.9530160654743862,0.579455472393969,0.015117581187010102,0.9180837826627957,0.7873941674506115,0.44371486842759794,0.2603986271608048,0.11380870451793794,0.01104066934057878,0.012560209743308338
0.07943879063333663,0.7336582265070452,0.9520309184601394,0.589217919514047,0.011851437103396825,0.9123807548734965,0.7929444967074318,0.44799283689001645,0.26235082968607326,0.11151468807748678,0.008064863932375923,0.008231205414304008
0.09228337120837861,0.7437228519970335,0.9493028190360716,0.5770690964312832,0.01950354609929082,0.9154914973040232,0.8070555032925681,0.4590359647813759,0.2683648729494002,0.11575224622443127,0.013283305300383842,0.014572282177915986
0.11194545993478905,0.7650174806653246,0.9494543801151865,0.5553747694977763,0.02874206793579695,0.9259643301534634,0.8330197554092191,0.4757498880764065,0.278094398438238,0.12374944242655961,0.02190882822271103,0.02597402597402598
0.11550242070941606,0.7640639898294309,0.9460442558351017,0.5538561666124308,0.032474804031355005,0.9231646619659892,0.847695202257761,0.48808635527035765,0.2843288516640953,0.12719046708723633,0.02566093069392332,0.031949271385891105
0.10927773935381879,0.7494437970123954,0.9403607153682935,0.5648118017138518,0.033128032848077665,0.9120696806304438,0.8397930385700847,0.4888325125603144,0.283825057464026,0.1247052826100809,0.02186570060809939,0.028473873544296088
0.11471198498172117,0.7394851149486174,0.9290694149742347,0.5669812344072025,0.042646509891750686,0.8995230194939859,0.8260583254938852,0.4869422474257573,0.28275449478887876,0.1227936022430383,0.019536809419071044,0.02646180110968844
0.12646971643118268,0.7352473779002012,0.9170203091846015,0.5626423690205011,0.055617767823814876,0.8891538780588967,0.8277516462841015,0.4946027956026464,0.2888629994647187,0.1282418912891098,0.02540216500625351,0.0343271751722456
0.14534136942989825,0.7339760567856763,0.9016368596544407,0.5529883935350905,0.07390817469204929,0.8780588967233514,0.8359360301034806,0.5077849077252151,0.2984350892660349,0.13690817561970306,0.03605468581532755,0.04804585086275228
0.15907519019859698,0.723381714164636,0.8835253107002121,0.5508189608417399,0.09163867114595001,0.8604313562836997,0.8307619943555974,0.5147490424314779,0.30536225951698737,0.14420442235391576,0.04446457066459655,0.05944759465886227
0.1602608437901393,0.7048416145778152,0.8693543498029705,0.5596051632498101,0.10087719298245616,0.8417669017005392,0.8090310442144872,0.510321842511068,0.305519695204509,0.14557445995029633,0.04649156855134345,0.061337723309554296
0.16688074300958403,0.7012395380866616,0.861700515307669,0.5578696170951296,0.10871593878312806,0.8347158855246786,0.7824082784571965,0.503108988708153,0.3050159010044397,0.1476135856751418,0.04959675680338122,0.06334979574416194
0.17814445212923624,0.7113041635766499,0.8602606850560777,0.5464800954550385,0.11496827174318779,0.8386561592700125,0.766698024459078,0.4993782022583694,0.3082590761673857,0.15596125661122795,0.05986112908095055,0.07499542710810317
0.19731251852583737,0.7323869053925204,0.8606395877538647,0.5252196550602017,0.12374020156774918,0.8492326835338033,0.7614299153339605,0.5002735910063175,0.31301363393053944,0.1664436372905117,0.07336007245439256,0.09060423144930187
0.20245035075585419,0.741498040046615,0.8632919066383753,0.5177351122681418,0.12458006718924974,0.855454168394857,0.7457196613358419,0.49146893498482813,0.3128876853805221,0.17144586758427324,0.081123043084487,0.09907932443143712
0.19247109969370615,0.7368365292933572,0.867535616853592,0.5255450699642044,0.1172079134005226,0.8561800082953133,0.7173095014111006,0.47485449932845847,0.30589754085456095,0.1707449181163576,0.0809936602406521,0.09633558929333579
0.17942891018674043,0.7350354910477803,0.8762503789026979,0.5336804425642695,0.1057297499066816,0.861157196184156,0.6976481655691439,0.458936477142715,0.2991592934286344,0.1695341872172306,0.07952732134385648,0.09170172550454242
0.18219543523367257,0.7536815340608115,0.8874658987571992,0.522616335828181,0.10013064576334454,0.8780588967233514,0.6909689557855127,0.44963438292792124,0.2962939639157405,0.17096794749251257,0.08202872299133135,0.0932260228034876
0.19019859697658334,0.7794257866299396,0.8997423461655047,0.5050439310120404,0.09630459126539755,0.8990045624222315,0.6917215428033866,0.44605282793612894,0.29657734815327946,0.17517364430000637,0.0884547375684651,0.10206694713736969
0.18387511115502422,0.7875834304481406,0.910427402243104,0.5043931012040351,0.08669279581933559,0.9103069265864787,0.6922859830667921,0.44291896731831076,0.2951919141030889,0.17670298859364048,0.09164618104972615,0.10450582281568198
0.16816520106708824,0.7762474838436274,0.9142922097605335,0.5188198286148172,0.07698768197088468,0.9074035669846537,0.6787394167450611,0.43013480575038554,0.2860921313643377,0.1697890779328363,0.08332255142968044,0.09267727577586733
0.15294931330896155,0.7690433308613199,0.9209608972415885,0.5308601800629136,0.06560283687943265,0.9084404811281626,0.6658513640639698,0.4166044868925036,0.2764570672880129,0.1621742178041165,0.07379134860050893,0.07975123468081216
0.15126963738760993,0.7812268248755164,0.9308881479236133,0.5255450699642044,0.05879059350503921,0.9211945250933222,0.6665098777046096,0.4088444510769537,0.272647123649989,0.16029439877652457,0.0712468193384224,0.07706847143466862
0.1639166090307282,0.8040046615107532,0.9374810548651107,0.5068879488013884,0.06065696155281823,0.9368519286603069,0.6795860771401694,0.4129234442620504,0.27585881167543064,0.1648824316574269,0.07715530254021652,0.08468995792939456
0.16223693310937654,0.8114207013454813,0.9440739618066082,0.5040676863000325,0.05580440462859276,0.9449398589796765,0.6889934148635936,0.4152116599512511,0.2778739884757077,0.16771809086854012,0.08013110794841939,0.08682397414791782
0.1454401738958601,0.8030511706748595,0.9509699909063354,0.5175181689988069,0.043579693915640205,0.9456656988801327,0.6847601128880526,0.4077998308710143,0.27409553197518816,0.16386286879500417,0.07499892180963472,0.07883665630144504
0.1335836379804367,0.7986015467740225,0.9568808729918157,0.526304371406877,0.03443449048152299,0.9474284529240978,0.6788334901222953,0.40307416803462165,0.2712302024622942,0.16058115083158095,0.0706430327338595,0.07109322602280349
0.139808319336034,0.8106790973620087,0.9607456805092452,0.5166503959214666,0.034994400895856696,0.956034840315222,0.6841956726246472,0.40760085559369247,0.27381214773764917,0.16300261262983498,0.07387760382973219,0.07511737089201878
0.15324572670684716,0.8335628774234558,0.9668081236738406,0.49755938821998047,0.03760731616274731,0.9713811696391539,0.6982126058325493,0.41461473411928573,0.2791964482508896,0.16934301918052636,0.08125242592832192,0.08481190171331017
0.1518624641833811,0.8370590104883991,0.9703698090330404,0.4965831435079726,0.034714445688689845,0.9755288262131896,0.706961429915334,0.42192707556086156,0.28417141597657364,0.1739947747403301,0.08547893216026223,0.08962868117797695
0.14267364884892797,0.8241339124907298,0.9681721733858745,0.5081896084173989,0.03172825681224338,0.9677519701368726,0.7012229539040451,0.41978809132965234,0.28266003337636575,0.17208309437328745,0.08293440289817572,0.0841412109017743
0.13891907914237722,0.8137514567221104,0.963625341012428,0.5156741512094587,0.032754759238521856,0.9595603484031523,0.6972718720602069,0.4179973138337562,0.28121162505116665,0.17023513668514625,0.08034674602147755,0.08188525089933542
0.14306886671277544,0.8130098527386375,0.9599120945741135,0.5137216617854431,0.03704740574841361,0.9565532973869765,0.70620884289746,0.4240163159727404,0.2859032085393117,0.17351685464856942,0.08470263509725277,0.08676300225596001
0.15551822942396998,0.8176713634918952,0.9536980903304031,0.5045015728387027,0.04665920119447555,0.9546868519286603,0.7210724365004704,0.433517385464856,0.29185427752763,0.1789014210157395,0.0925518609565705,0.09487226388634841
0.16144649738168165,0.8172475897870537,0.948848135798727,0.5014643670680117,0.05253826054497948,0.9510576524263791,0.7230479774223895,0.4373476595533005,0.294530684215498,0.18221500031861337,0.09552766636477339,0.09907932443143712
0.15117083292164804,0.7994490941837059,0.9439224007274932,0.5162165093827964,0.05067189249720046,0.9390294483616757,0.7120413922859831,0.43227378998159477,0.2905633048899525,0.1789014210157395,0.09130116013283307,0.09340893847936102
0.14603300069163125,0.7833456933997244,0.9364201273113065,0.5272806161188849,0.05281821575214633,0.9260680215678142,0.7030103480714958,0.42774710242252395,0.2872886425895022,0.1747275855476964,0.0861689739940484,0.08627522712029755
0.15808714553897837,0.7844051276618286,0.9278569263413156,0.5201214882308276,0.06382978723404256,0.9206760680215678,0.7085606773283161,0.431627120330299,0.28958720362731827,0.17641623653858407,0.08836848233924183,0.08975062496189257
0.16964726805651617,0.785358618497722,0.9197484086086694,0.5132877752467729,0.0742814483016051,0.9155951887183741,0.7215428033866416,0.4399343381584838,0.2954752983406279,0.18294781112597974,0.09552766636477339,0.10066459362234012
0.179033692322893,0.7782604089416251,0.9074719612003638,0.5117691723614275,0.0863195222097798,0.9037743674823725,0.7199435559736594,0.44207332238969305,0.2964513996032621,0.184349710061811,0.0988053650752577,0.10578623254679594
0.1703388993182492,0.7601440830596461,0.9011821764170961,0.5257620132335394,0.08603956700261295,0.8905018664454584,0.7017873941674505,0.43396507983883,0.29053181775244813,0.1786465303001338,0.09216371242506577,0.09804280226815439
0.1653986760201561,0.7452060599639792,0.8942861473173689,0.5361752901616227,0.08790593505039195,0.8785773537951057,0.6861712135465663,0.4276973586031936,0.2858717214018074,0.1743452494742879,0.0867727605986113,0.09145783793671118
0.17182096630767713,0.7471130416357663,0.8907244619581692,0.5316194815055864,0.09322508398656217,0.8770219825798424,0.6955785512699906,0.4307814754016814,0.2876979753770585,0.1767348499330912,0.08961918316297927,0.09487226388634841
0.17577314494615157,0.7606738001906982,0.8974689299787815,0.5225078641935135,0.0908921239268384,0.8883243467440896,0.706585136406397,0.4343630303934736,0.2905947920274568,0.1795386478047537,0.09388881700953121,0.1004816779464667
0.17142574844382966,0.7659709715012183,0.9044407396180663,0.5221824492895107,0.08454647256438971,0.8956864371630029,0.7021636876763876,0.4323732776202557,0.28857961522717973,0.17877397565793665,0.09216371242506577,0.09944515578318397
0.15660507854955044,0.7556944591588092,0.9084571082146105,0.535632931988285,0.0750279955207167,0.8933015346329324,0.6873000940733772,0.4238173406954186,0.28313234043893076,0.17281590518065382,0.08392633803424333,0.09036034388147066
0.14840430787471595,0.7473249284881872,0.9087602303728403,0.5444191343963554,0.0710153042179918,0.8894649523019494,0.6762935089369708,0.4151121723125902,0.2768664000755691,0.16717644809787804,0.07646526070643034,0.08145844765563076
0.1541349669005039,0.7562241762898612,0.9108820854804486,0.5367176483349604,0.07241508025382608,0.8952716715055993,0.6814675446848542,0.41327165099736357,0.275606914575396,0.16625246925380743,0.0764221330918187,0.07950734711298092
0.15848236340282582,0.7764593706960483,0.9219460442558352,0.5240264670788589,0.06765584173198956,0.9126918291165492,0.6887111947318909,0.41546037904790334,0.27749614282565577,0.16931115784107564,0.08008798033380775,0.08529967684897263
0.156209860685703,0.7872656001695094,0.9313428311609578,0.5196876016921576,0.060750279955207175,0.9245126503525508,0.6890874882408278,0.4144157588419639,0.2764255801505085,0.16867393105206144,0.0803898736360892,0.08694591793183343
0.14702104535124988,0.7815446551541476,0.9343740527432556,0.5276060310228875,0.0545912653975364,0.9237868104520947,0.6787394167450611,0.407103417400388,0.2711042539122769,0.16220607914356722,0.07361883814206237,0.0775562465703311
0.13704179428910188,0.7796376734823602,0.9406638375265233,0.5341143291029395,0.04600597237775293,0.927104935711323,0.6754468485418625,0.3994428692234989,0.2669479517617054,0.15901994519849616,0.06900418337861734,0.07042253521126761
0.14069755952969074,0.7904439029558216,0.9455895725977569,0.5266297863108798,0.044699514744307604,0.9357113231024472,0.6921919096895578,0.40720290503904893,0.2711042539122769,0.16348053272159563,0.07327381722516929,0.07658069629900616
0.1510720284556862,0.8119504184765335,0.9530160654743862,0.5099251545720793,0.04497946995147445,0.9513687266694318,0.711665098777046,0.41745013182112123,0.2777165527881861,0.17093608615306188,0.08302065812739898,0.0866410584720444
0.15087441952376246,0.8303845746371437,0.9664292209760534,0.5004881223560039,0.03667413213885779,0.9696184155951887,0.7105362182502352,0.4163060239765209,0.28023552378853245,0.17389919072197796,0.08703152628628112,0.09066520334125969
0.1415867997233475,0.8296429706536708,0.9728705668384359,0.5060201757240481,0.028368794326241138,0.9736623807548735,0.6860771401693321,0.40620802865243993,0.2766145029755345,0.17049002740075195,0.08284814766895245,0.08529967684897263
0.13970951487007213,0.828371649539146,0.9734768111548955,0.5077557218787286,0.02706233669279585,0.9734549979261717,0.6718720602069614,0.40033825797144706,0.2734972763626059,0.16755878417128656,0.08021736317764265,0.08115358819584173
0.14820669894279223,0.8387541053077656,0.9743103970900273,0.4977763314893156,0.030608435983575977,0.97905433430112,0.6698965192850422,0.40416853205989156,0.27601624736295227,0.17052188874020263,0.0842282313365248,0.0857874519846351
0.15858116786878768,0.8428858989299712,0.969460442558351,0.48985790215858555,0.03844718178424786,0.9777063459145583,0.6776105362182502,0.41247574988807645,0.28058188230108,0.17421780411648508,0.08983482123603745,0.09346991037131883
0.15581464282185556,0.8332450471448246,0.9646104880266748,0.49636620023863764,0.040126913027249,0.9697221070095395,0.6824082784571965,0.4160075610605382,0.28221921345130513,0.17581087108902058,0.09121490490360978,0.09670142064508264
0.14652702302144058,0.8191545714588409,0.9616550469839346,0.508623494956069,0.03760731616274731,0.9608046453753629,0.670178739416745,0.40978958364423224,0.2777165527881861,0.17201937169438603,0.08522016647259242,0.08889701847448328
0.1472186542831736,0.8143871172793726,0.9577144589269476,0.5106844560147521,0.04031354983202688,0.9557237660721692,0.6598306679209783,0.4038700691439089,0.2740010705626752,0.1682278722997515,0.081123043084487,0.08212913846716664
0.1554194249580081,0.8207437228519969,0.9559715065171264,0.5029829699533571,0.0452594251586413,0.9576939029448361,0.6650047036688617,0.40725264885837936,0.2754494788878743,0.17020327534569554,0.08396946564885498,0.08633619901225537
0.1687580278628594,0.8254052336052546,0.9490754774173993,0.49332899446794665,0.05580440462859276,0.9553090004147657,0.6754468485418625,0.41312241953937223,0.27806291130073363,0.17307079589625948,0.0884547375684651,0.09353088226327663
0.1731054243651813,0.8130098527386375,0.9368748105486511,0.49723397331597785,0.06532288167226578,0.9408958938199917,0.6774223894637817,0.4136696015520072,0.2771497843131081,0.17192378767603392,0.08836848233924183,0.09450643253460156
0.16302736883707145,0.7885369212840342,0.9270991209457412,0.5152402646707885,0.0666293393057111,0.9222314392368313,0.6640639698965193,0.4052628960851614,0.2706949211247206,0.16596571719875106,0.08082114978220556,0.08584842387659289
0.15453018476435135,0.7683017268778471,0.9191421642922099,0.5303178218895759,0.06746920492721166,0.9068851099128993,0.6574788334901223,0.3996915883201513,0.2662552347366101,0.16182374307015865,0.0747401561219649,0.07920248765319189
0.16322497776899517,0.7662888017798495,0.9110336465595635,0.5265213146762122,0.07661440836132886,0.9002488593944422,0.6671683913452493,0.4052628960851614,0.26852230863692184,0.1632256420059899,0.07711217492560488,0.08292177306261815
0.17745282086750322,0.7715859730903696,0.9039102758411641,0.5161080377481289,0.08771929824561406,0.8980713396930735,0.677140169332079,0.41167984877878927,0.2730879435750496,0.16781367488689222,0.0826756372105059,0.09139686604475337
0.1772552119355795,0.7702087085496344,0.9030009093664747,0.5168673391908016,0.08818589025755882,0.8967233513065118,0.6792097836312323,0.4112321544048152,0.2711672281872855,0.16577454916204676,0.08107991546987538,0.09115297847692215
0.16253334650726212,0.7579192711092276,0.9055774477114277,0.5311855949669161,0.07960059723777531,0.8924720033181253,0.6673565380997177,0.4000397950554644,0.2641141093863157,0.15863760912508762,0.07141932979686895,0.07938540332906531
0.14553897836182195,0.7465833245047143,0.9105789633222188,0.546371623820371,0.06858902575587908,0.8902944836167566,0.6572906867356538,0.3912848828533055,0.25838345036052773,0.1531574587395654,0.06447578384439558,0.07054447899518322
0.1510720284556862,0.7599321962072253,0.9158078205516824,0.5365007050656253,0.06793579693915641,0.900456242223144,0.6619002822201316,0.39208078396259266,0.25872980887307534,0.15369910151022748,0.0649933152197352,0.07127614169867692
0.15729670981128346,0.7745523890242609,0.921415580478933,0.5255450699642044,0.06746920492721166,0.9114475321443384,0.6695202257761054,0.39412028055514103,0.25923360307314464,0.15516472312496016,0.06693405787725883,0.07499542710810317
0.14800909001086848,0.7735988981883672,0.9279327068808729,0.5311855949669161,0.058977230309817115,0.9154914973040232,0.6692380056444026,0.3910859075759837,0.2580056047104758,0.15497355508825592,0.06697718549187046,0.07426376440460947
0.1330896156506274,0.7616272910265917,0.9308123673840557,0.5455038507430306,0.05020530048525572,0.9115512235586893,0.6611476952022578,0.3853156245336517,0.25337699549733933,0.15032179952845218,0.062362530728425423,0.0678617157490397
0.12785297895464875,0.7537874774870218,0.9292209760533494,0.5523375637270854,0.048712206047032504,0.9066777270841975,0.6588899341486358,0.3809879122519027,0.25079505022198434,0.1476135856751418,0.05951610816405745,0.06371562709590879
0.1385238612785298,0.7685136137302679,0.9315701727796303,0.5389955526629786,0.05225830533781263,0.9154914973040232,0.6679209783631233,0.3845197234243645,0.2540067382474259,0.15105461033581852,0.0630525725622116,0.06883726602036462
0.1477126766129829,0.7935162623159232,0.9424067899363443,0.5210977329428355,0.05001866368047779,0.9350891746163418,0.6824082784571965,0.39252847833656673,0.25973739727321393,0.15659848340024213,0.0694354595247337,0.07475153954027194
0.1441557158383559,0.8044284352155948,0.9529402849348287,0.5175181689988069,0.0418066442702501,0.9476358357527996,0.6905926622765757,0.3959110580510372,0.2618785226235083,0.15863760912508762,0.07047052227541295,0.07645875251509054
0.12854461021638178,0.8060175866087509,0.9660503182782662,0.5252196550602017,0.026409107876073187,0.9573828287017835,0.6817497648165569,0.3886982042481222,0.25857237318555376,0.15440005097814313,0.06421701815672577,0.06853240656057558
0.12340677798636497,0.8131157961648479,0.9751439830251593,0.524460353617529,0.018383725270623378,0.9670261302364164,0.6715898400752587,0.3825299706511466,0.2563367864227463,0.15175555980373415,0.06119808513391125,0.06365465520395099
0.1313111352633139,0.8293251403750396,0.980600181873295,0.511877643996095,0.018756998880179194,0.9787432600580671,0.673659454374412,0.3879520469581655,0.2605875499858308,0.15541961384056585,0.06615776081424937,0.06962990061581611
0.14563778282778383,0.8476533531094393,0.9827220369809033,0.494630654083957,0.024169466218738347,0.9891124014931565,0.6854186265286923,0.3986967119335422,0.267105387449227,0.16195118842796152,0.07396385905895547,0.08151941954758857
0.14593419622566942,0.8429918423561817,0.9791603516217036,0.49680008677730775,0.02650242627846215,0.9844462878473663,0.6894637817497649,0.4001890265134557,0.2685537957744262,0.163990314152807,0.07633587786259544,0.08444607036156332
0.13348483351447485,0.8241339124907298,0.9752197635647166,0.5132877752467729,0.023049645390070945,0.9725217751970138,0.6791157102539981,0.39337412326518434,0.26386221228628104,0.1598164786847639,0.07133307456764566,0.07627583683921713
0.13071830846754273,0.8149168344104246,0.9707487117308276,0.5194706584228225,0.024449421425905195,0.9649523019493986,0.6655691439322671,0.3908371884793314,0.2622248811360559,0.1580322436755241,0.06831414154483118,0.07072739467105665
0.14198201758719495,0.8114207013454813,0.9596089724158837,0.515131793036121,0.03667413213885779,0.9556200746578184,0.6730950141110066,0.3958115704123763,0.2644919550363677,0.16016695341872172,0.07167809548453877,0.07408084872873605
0.1554194249580081,0.8078186248543276,0.946650500151561,0.5095997396680768,0.05095184770436731,0.9450435503940274,0.6832549388523048,0.4026264736606477,0.26798702729934826,0.1634486713821449,0.07681028162332341,0.0824949698189135
0.15660507854955044,0.7945756965780272,0.9363443467717489,0.5157826228441262,0.05795072788353866,0.9314599751140605,0.6769520225776106,0.40217877928667367,0.26801851443685254,0.16408589817115912,0.07698279208176996,0.08603133955246632
0.15038039719395316,0.7691492742875304,0.9229311912700818,0.5321618396789239,0.06326987681970887,0.9098921609290751,0.6619943555973659,0.3961100333283589,0.2637992380112724,0.16083604154718664,0.07323068961055766,0.08023900981647461
0.14939235253433455,0.7549528551753363,0.9135344043649591,0.5399717973749865,0.06858902575587908,0.8965159684778101,0.653904045155221,0.39421976819380194,0.26206744544853433,0.1597208946664118,0.0724543925475482,0.07859276873361382
0.1610512795178342,0.7572836105519651,0.9062594725674448,0.532378782948259,0.07848077640910789,0.8926793861468271,0.6596425211665099,0.3991444063075163,0.26502723637394127,0.16290702861148282,0.0770259196963816,0.08395829522590087
0.17399466455883805,0.7633223858459581,0.9006517126401941,0.5221824492895107,0.08809257185516986,0.891746163417669,0.6699905926622766,0.4060587971944486,0.26959287131206905,0.16752692283183584,0.08306378574201062,0.09304310712761418
0.17024009485228733,0.7577073842568068,0.8995150045468323,0.5271721444842173,0.0870660694288914,0.8882206553297388,0.6737535277516462,0.4079988061483361,0.27056897257470325,0.16784553622634296,0.08332255142968044,0.09560392658984208
0.1549254026281988,0.740968322915563,0.8993634434677176,0.5440937194923527,0.07988055244494216,0.8799253421816674,0.6668861712135465,0.40168134109336917,0.2660977990490885,0.16258841521697573,0.07711217492560488,0.08658008658008659
0.15176365971741923,0.7358830384574637,0.8980751742952411,0.5484325848790541,0.07913400522583056,0.8766072169224388,0.6619002822201316,0.3983485051982291,0.2636418023237508,0.15943414261135538,0.07361883814206237,0.08170233522346199
0.16203932417745281,0.7476427587668185,0.8986056380721431,0.5367176483349604,0.08370660694288916,0.8827250103691414,0.6722483537158984,0.4043675073372134,0.26669605466167073,0.16211049512521505,0.07633587786259544,0.0850557892811414
0.16609030728188914,0.7604619133382773,0.9046680812367385,0.5280399175615577,0.08184023889511013,0.8930941518042307,0.6876763875823142,0.4102870218375367,0.2705059982996946,0.16660294398776523,0.08133868115754518,0.0916407536125846
0.1598656259262919,0.7560122894374403,0.9062594725674448,0.5336804425642695,0.07801418439716314,0.8920572376607216,0.6900282220131703,0.4093418892702582,0.2686482571869392,0.1652647677308354,0.07948419372924484,0.08853118712273643
0.14297006224681355,0.7385316241127237,0.9066383752652318,0.5519036771884152,0.06980216498693544,0.8836582330982995,0.6776105362182502,0.39899517484952496,0.26115431846090875,0.1576180462626649,0.06982360805623843,0.07676361197487959
0.13071830846754273,0.7316453014090476,0.9111852076386784,0.562208482481831,0.06112355356476299,0.8834508502695977,0.6773283160865474,0.393224891807193,0.25712396486035455,0.15325304275791757,0.06292318971837668,0.06895920980428023
0.1390178836083391,0.7494437970123954,0.9174749924219461,0.5484325848790541,0.061216871967151934,0.8965159684778101,0.6873941674506114,0.3985972242948813,0.2609968827733871,0.1568215127763971,0.06762409971104501,0.07511737089201878
0.1472186542831736,0.7716919165165801,0.9271749014852986,0.5325957262175941,0.05907054871220608,0.9140398175031108,0.6921919096895578,0.40113415908073424,0.26452344217387197,0.16086790288663735,0.07452451804890674,0.08298274495457594
0.14148799525738562,0.7760355969912066,0.9346771749014853,0.5334634992949343,0.0517917133258679,0.9211945250933222,0.6849482596425212,0.3978510670049246,0.2625082653735949,0.15962531064805965,0.07284254107905294,0.08121456008779954
0.12943385041003852,0.773281067909736,0.9418763261594423,0.5415988718949994,0.041713325867861174,0.9248237245956035,0.6733772342427093,0.39029000646669654,0.2579426304354671,0.15481424839100236,0.06650278173114248,0.07383696116090484
0.12064025293943287,0.7660769149274286,0.9434677174901486,0.5500596593990672,0.03648749533407991,0.922438822065533,0.6643461900282219,0.3827786897477989,0.2535029440473567,0.149461543363283,0.05886919394488292,0.06322785196024633
0.1267661298290683,0.7667125754846911,0.9392997878144893,0.546371623820371,0.041993281075028026,0.9198465367067608,0.6651928504233302,0.38342535939909467,0.25271576560974846,0.14936595934493085,0.05938672532022255,0.06438631790744467
0.13694298982314002,0.7787901260726771,0.9400575932100637,0.5345482156416097,0.04628592758491978,0.926275404396516,0.674035747883349,0.3880017907774959,0.2559589407726944,0.15328490409736825,0.06602837797041447,0.0719468325102128
0.13378124691236043,0.7782604089416251,0.9422552288572296,0.5366091767002928,0.04348637551325124,0.9275197013687266,0.6749764816556914,0.38864846042879175,0.2564312478352593,0.1540177149047346,0.06710656833570536,0.07243460764587525
0.11757731449461517,0.7690433308613199,0.9480145498635951,0.5502766026684023,0.03228816722657712,0.9268975528826214,0.6646284101599247,0.3804904740585982,0.25321955980981775,0.15057669024405784,0.06240565834303707,0.06645936223401012
0.11530481177749236,0.7762474838436274,0.9549105789633223,0.5477817550710489,0.026969018290406887,0.9351928660306926,0.6597365945437441,0.37939611003332835,0.25337699549733933,0.15083158095966354,0.06206063742614397,0.06426437412352906
0.12518525837367847,0.7990253204788642,0.963625341012428,0.5306432367935785,0.02622247107129526,0.9523019493985898,0.6719661335841957,0.3874048649455305,0.259265090210649,0.15659848340024213,0.06874541769094754,0.07164197305042376
0.1393142970062247,0.8171416463608432,0.9656714155804791,0.5137216617854431,0.03163493840985446,0.962567399419328,0.6855126999059266,0.39695567825697664,0.2659088762240625,0.16335308736379278,0.07758657868633287,0.08310468873849157
0.1403023416658433,0.8115266447716918,0.9610488026674749,0.5159995661134613,0.034994400895856696,0.9566569888013272,0.6931326434619003,0.40362135004725663,0.26937246134953874,0.16641177595106096,0.08060551170914738,0.0866410584720444
0.13190396205908508,0.7941519228731855,0.9549863595028796,0.5295585204469031,0.03480776409107877,0.9440066362505184,0.6809031044214486,0.40188031637069094,0.2684908214994175,0.16392659147390556,0.07668089877948851,0.08036095360039022
0.13486809603794092,0.7919271109227672,0.9511215519854501,0.5290161622735655,0.03854050018663682,0.9402737453338863,0.673659454374412,0.4000397950554644,0.2686482571869392,0.1635123940610463,0.07534394272652781,0.07956831900493873
0.15265289991107597,0.8033690009534907,0.9455895725977569,0.5133962468814406,0.05029861888764468,0.9421401907922025,0.6761053621825023,0.40297468039596085,0.2712931767373028,0.16695341872172306,0.07922542804157502,0.08700688982379125
0.1687580278628594,0.8101493802309565,0.9381630797211276,0.5011389521640092,0.06252332960059725,0.9402737453338863,0.6774223894637817,0.4064567477490922,0.27267861078749334,0.17026699802459697,0.08470263509725277,0.09609170172550456
0.15956921252840628,0.7972242822332873,0.9359654440739619,0.5127454170734352,0.05953714072415081,0.9324968892575695,0.6623706491063029,0.3972043973536288,0.26748323309927896,0.1670490027400752,0.08215810583516626,0.09304310712761418
0.13121233079735203,0.7965886216760248,0.9571839951500455,0.5286907473695629,0.033128032848077665,0.9467026130236416,0.6420507996237065,0.3758642988608666,0.2599263200982399,0.1628751672720321,0.07461077327813,0.07981220657276997
0.11135263313901789,0.8291132535226188,0.9957562897847833,0.5229417507321835,0.0,0.9890087100788054,0.6345249294449671,0.35875242501119237,0.2555496079851381,0.16389473013445485,0.07219562685987839,0.06981281629168953
0.12123307973520403,0.8455344845852314,1.0,0.5090573814947391,0.002053004852556954,1.0,0.6692380056444026,0.37561557976421434,0.27409553197518816,0.1855285796214873,0.09117177728899817,0.08084872873605269
0.1777492342653888,0.8599427905498463,0.966883904213398,0.4706584228224319,0.04908547965658832,0.9843425964330154,0.738381937911571,0.4511266975078347,0.3418243647470009,0.25849104696361436,0.162720489929702,0.14572282177915982
0.26677205809702603,0.8419324080940775,0.8856471658078205,0.4310662761687819,0.14109742441209408,0.9199502281211116,0.7978363123236124,0.5569318012236979,0.44784155672407827,0.37596380551838404,0.27696554103592536,0.2526675202731541
0.3882027467641538,0.7989193770526539,0.7618217641709609,0.3863759626857577,0.27472937663307206,0.814184985483202,0.7962370649106302,0.6623389543849177,0.5758997449541863,0.5235455298540751,0.41725967136757663,0.384732638253765
0.5449066297796661,0.7952113571352897,0.638981509548348,0.3023104458184184,0.4243187756625607,0.7283284944006637,0.7430856067732831,0.7755061433616873,0.7243930854246041,0.6879500414197414,0.5729072325009704,0.5385037497713555
0.7144550933702204,0.8450047674541794,0.5445589572597757,0.18375094912680337,0.5626166480029862,0.6880962256325176,0.6710253998118533,0.8671342585683729,0.8389747788028591,0.8156184285987383,0.7066890930262648,0.6875800256081948
0.8631558146428218,0.8990359148214853,0.4692331009396787,0.07441154138192853,0.6791713325867861,0.6630029033596019,0.5713076199435559,0.9069790578520619,0.8835290783714853,0.8619129548206207,0.7863026695993446,0.80812145600878
0.9453611303230907,0.8860048733976056,0.3967869051227645,0.03601258270962132,0.7625979843225085,0.6070095396101203,0.4428033866415804,0.8849425458886734,0.8755943197203944,0.8384948703243486,0.7924267908741969,0.8582403511980977
0.8684912558047623,0.767983896599216,0.3713246438314641,0.13851827747044151,0.7419746173945502,0.5319369556200747,0.3472248353715898,0.7440183057255136,0.7429704965521585,0.6952462881539541,0.6642946478630267,0.757453813791842
0.6655468827190989,0.6697743405021717,0.45672931191270083,0.3002494847597353,0.593598357596118,0.542202405640813,0.202728127939793,0.4356563696960653,0.4396549009729526,0.4242974574651118,0.4213567947556821,0.5378940308517773
0.4349372591641143,0.7064307659709714,0.6598211579266444,0.40807028961926456,0.35964912280701755,0.6991912069680631,0.10009407337723422,0.14783863105009207,0.13580402405617303,0.1364939782068438,0.14641825160650368,0.27504420462166945
0.3057998221519613,0.772433520500053,0.8060775992725069,0.44516758867556133,0.20856662933930573,0.8315014516798009,0.07695202257761055,0.03974531164502808,0.007053118800969813,0.0,0.00025876568766981193,0.12163892445582586
0.26687086256298787,0.7844051276618286,0.8444983328281298,0.4603536175290161,0.16657334826427772,0.8636457901285773,0.16989651928504235,0.11669900014923142,0.06032935545829527,0.03116038998279487,0.007159184025531563,0.10279860984086336
0.22329809307380696,0.7988134336264433,0.8882237041527735,0.47694977763314894,0.11907428144830162,0.9006636250518456,0.3312323612417685,0.23633288563895938,0.15013067162064297,0.09239788440706047,0.0420062966317333,0.10444485092372417
0.1795277146527023,0.7929865451848712,0.9176265535010609,0.503959214665365,0.08025382605449798,0.9178763998340939,0.47168391345249294,0.32587176043376614,0.2120973582291634,0.12938889950933538,0.05610902660973822,0.0875556368514115
0.17666238513980834,0.7882190910054031,0.9163382843285844,0.5079726651480637,0.07969391564016426,0.9146619659892162,0.5638758231420508,0.38014226732328504,0.24808715639661202,0.1500669088128465,0.06801224824254971,0.08718980549966467
0.17962651911866417,0.7812268248755164,0.9091391330706275,0.5099251545720793,0.08547965658827922,0.9063666528411448,0.6123236124176857,0.3989454310301945,0.26206744544853433,0.15755432358376348,0.07387760382973219,0.09261630388390953
0.16549748048611798,0.7719038033690009,0.9133828432858442,0.5225078641935135,0.07624113475177308,0.9046038987971797,0.6349012229539039,0.39690593443764616,0.26266570106111653,0.1555470591983687,0.06891792814939406,0.08712883360770686
0.1423772354510424,0.7484903061765017,0.9142922097605335,0.5471309252630437,0.06476297125793208,0.893819991704687,0.6371589840075259,0.3884992289708004,0.25693504203532863,0.14777289237239535,0.0575322378919222,0.07139808548259252
0.13002667720580968,0.7358830384574637,0.9147468929978781,0.5603644646924829,0.05869727510265026,0.8879095810866859,0.6412041392285983,0.38650947619758247,0.2545735067225039,0.1430892754731409,0.05123560615862338,0.06353271142003536
0.13526331390178836,0.7403326623583005,0.9139133070627463,0.5551578262284413,0.06159014557670775,0.8895686437163003,0.6625587958607714,0.39680644679898525,0.25882427028558835,0.14649843879436691,0.05477207055677752,0.06743491250533505
0.1420808220531568,0.7440406822756647,0.9113367687177933,0.5495173012257295,0.0664427025009332,0.8896723351306512,0.6872060206961429,0.4087449634382928,0.26578292767404516,0.15111833301471994,0.060249277612455264,0.07042253521126761
0.13822744788064423,0.7321750185400996,0.9058047893301001,0.5577611454604621,0.06802911534154538,0.8800290335960183,0.6970837253057385,0.41242600606874597,0.26719984886174003,0.1503536608679029,0.05830853495493166,0.06743491250533505
0.1266673253631064,0.7120457675601227,0.9002728099424068,0.5744657771992624,0.06597611048898845,0.8664454583160515,0.6932267168391345,0.4084465005223101,0.26263421392361225,0.14509653985853563,0.051537499460904836,0.05859398817145297
0.1271613476929157,0.7065367093971817,0.8959533191876327,0.5769606247966157,0.06886898096304593,0.8607424305267524,0.6877704609595484,0.4068546983037358,0.2606820113983438,0.1420059899318167,0.047181610385129615,0.05267971465154564
0.13555972729967394,0.7181904862803262,0.8978478326765688,0.5663304045991974,0.07166853303471447,0.867793446702613,0.7000940733772342,0.4136198577326767,0.26499574923643693,0.1449372331612821,0.05183939276318628,0.05859398817145297
0.1441557158383559,0.7330225659497827,0.9019399818126705,0.554073109881766,0.07325494587532663,0.8778515138946495,0.7121354656632173,0.4211311744515744,0.2680500015743569,0.1479959217485503,0.05662655798507786,0.06475214925919152
0.1395119059381484,0.7319631316876787,0.9046680812367385,0.5571103156524569,0.06933557297499068,0.8791995022812111,0.7063029162746942,0.41665423071183405,0.26584590194905383,0.1461161027209584,0.0543839220252728,0.06194744222913237
0.12202351546289893,0.7226401101811633,0.9114883297969082,0.571537043063239,0.05683090705487124,0.879303193695562,0.6986829727187206,0.40879470725762324,0.2609024213608741,0.1415280698400561,0.046448440936731804,0.05048472654106457
0.11560122517537794,0.7209450153617968,0.9151257956956654,0.5758759084499403,0.05160507652108997,0.8808585649108255,0.6993414863593602,0.4068546983037358,0.25910765452312734,0.13939336009685846,0.043343252684694,0.04713127248338517
0.12261634225867009,0.723381714164636,0.9115641103364657,0.5708862132552337,0.057110862262038084,0.8796142679386146,0.7104421448730008,0.4134706262746854,0.26276016247362954,0.14197412859236602,0.047569758916634335,0.05133833302847388
0.13269439778677997,0.729420489458629,0.9080782055168234,0.562208482481831,0.06401642403882048,0.8802364164247201,0.7228598306679209,0.4212804059095658,0.267388771686766,0.14589307334480342,0.05326260404537027,0.05835010060362174
0.12755656555676317,0.7189320902637991,0.9045165201576235,0.5703438550818961,0.06382978723404256,0.8726669431771049,0.7219190968955785,0.4187434711237129,0.26531062061148025,0.14391767029885938,0.05063181955406047,0.05591122492530944
0.11194545993478905,0.6970018010382455,0.9008032737193089,0.5901941642260549,0.05869727510265026,0.8593944421401908,0.7092191909689557,0.4084465005223101,0.25882427028558835,0.13576116739947747,0.041273127183335506,0.04365587464179014
0.10433751605572573,0.6901154783345693,0.9017126401939982,0.5978956502874498,0.05449794699514748,0.8566984653670676,0.7040451552210725,0.40426801969855247,0.2554236594351208,0.13107755050022302,0.03558028205459957,0.03798548868971405
0.10967295721766625,0.7006038775293993,0.9051227644740831,0.5895433344180496,0.05496453900709221,0.864060555785981,0.7144873000940734,0.4065562353877531,0.2560848893227117,0.132511310775505,0.03627032388838576,0.04060728004389977
0.11807133682442446,0.7116219938552812,0.9065625947256745,0.5793470007593015,0.0580440462859276,0.8704894234757362,0.7235183443085607,0.41053574093418893,0.25904468024811866,0.13509207927101252,0.03946176736964679,0.045485031400524366
0.11135263313901789,0.7088674647738108,0.909745377387087,0.5844451675886756,0.0529115341545353,0.8713189547905434,0.7234242709313263,0.4093418892702582,0.2583204760855191,0.13391320971133627,0.03756415232673482,0.042924211938296444
0.09425946052761584,0.6959423667761415,0.9136101849045166,0.6003904978848031,0.042459873086972764,0.8675860638739112,0.7142050799623706,0.40242749838332587,0.2539437639724173,0.12846492066526474,0.029930564540475275,0.03237607462959576
0.09129532654875999,0.6941413285305646,0.9146711124583208,0.602993817116824,0.040406868234415846,0.8674823724595604,0.7083725305738476,0.4008356961647515,0.25177115148461854,0.12543809341744727,0.026005951610816418,0.027925126516675818
0.10087935974706057,0.7059010488399194,0.915732040012125,0.5917127671114003,0.044232922732362824,0.8740149315636666,0.7228598306679209,0.4086454757996319,0.2555496079851381,0.12814630727075765,0.030189330228145086,0.03341259679287849
0.11184665546882719,0.7176607691492742,0.915732040012125,0.5796724156633041,0.049458753266144094,0.8797179593529656,0.7382878645343368,0.41824603293040846,0.26093390849837844,0.13346715095902634,0.03756415232673482,0.042192549234802756
0.11026578401343741,0.7202034113783239,0.9186874810548652,0.5792385291246338,0.04684583799925348,0.8830360846121941,0.7366886171213546,0.41899219022036516,0.26121729273591743,0.13375390301408271,0.038340449389744256,0.042741296262423026
0.09771761683628101,0.7075961436592858,0.9192937253713246,0.5925805401887406,0.040593505039193734,0.8772293654085442,0.728316086547507,0.4116301049594588,0.256305299285242,0.12747721914229274,0.031051882520377806,0.03365648436070971
0.09574152751704378,0.7017692552177136,0.9166414064868141,0.5965939906714394,0.041340052258305365,0.8725632517627542,0.7282220131702728,0.4091926578122669,0.25312509839730474,0.12237940483017906,0.024625867943244072,0.026644716785561857
0.10404110265784013,0.7114101070028604,0.9170960897241589,0.5871569584553639,0.04488615154908549,0.8776441310659477,0.7412041392285983,0.4170024374471472,0.256494222110268,0.12473714394953166,0.02734290766377712,0.03127858057435522
0.10888252148997134,0.7202034113783239,0.9197484086086694,0.5799978305673066,0.045632698768197116,0.8837619245126503,0.7579492003762934,0.42685171367457597,0.26266570106111653,0.12929331549098322,0.033122008021736336,0.039022010852996766
0.10305305799822154,0.7156478440512766,0.9209608972415885,0.5855298839353509,0.04208659947741695,0.8823102447117378,0.7650047036688618,0.4315773765109685,0.2647753392739066,0.1301217103167017,0.033510156553241036,0.038900067069081154
0.09040608635510325,0.7012395380866616,0.9203546529251289,0.5998481397114654,0.03648749533407991,0.8748444628784737,0.7638758231420508,0.43172660796895984,0.26253975251109923,0.12607532020646148,0.02807607711217495,0.03127858057435522
0.09406185159569212,0.7021930289225553,0.9182327978175204,0.5973532921141121,0.0395670026129153,0.8739112401493156,0.7656632173095014,0.4354573944187435,0.2639881608362984,0.12492831198623588,0.026178462069262946,0.029632339491494426
0.11481078944768304,0.7185083165589574,0.9139890876023037,0.5776114546046209,0.05188503172825682,0.8788884280381586,0.7753527751646283,0.4446102571755459,0.2699077426871123,0.12868795004141972,0.03208694527105705,0.03859520760929212
0.13042189506965715,0.7279372814916834,0.9087602303728403,0.5642694435405142,0.06252332960059725,0.8799253421816674,0.7793979303857008,0.45067900313386067,0.27359173777511886,0.1312049958580259,0.03644283434683229,0.047497103835132004
0.12755656555676317,0.7193558639686406,0.9048196423158533,0.570126911812561,0.06354983202687572,0.8730817088345085,0.7764816556914393,0.45082823459185195,0.26943543562454736,0.12722232842668707,0.03282011471945488,0.04377781842570575
0.11905938148404308,0.6925521771374085,0.8920885116702031,0.5885670897060419,0.06746920492721166,0.8513065118208213,0.7636876763875823,0.4475451425160424,0.26499574923643693,0.12043586312368572,0.02436710225557426,0.03444911895616121
0.12212231992886077,0.6780379277465832,0.8794331615641104,0.5943160863434211,0.07661440836132886,0.8355454168394858,0.7648165569143932,0.4511266975078347,0.2655940048490192,0.11852418275664309,0.021348169232759763,0.033290653008962875
0.13911668807430097,0.6825934950736307,0.869733252500758,0.5826011497993275,0.09061216871967155,0.8310866860223973,0.7840075258701786,0.4640103467144207,0.27280455933751063,0.12285732492193972,0.027731056195281854,0.042863240046338645
0.15117083292164804,0.6872550058268884,0.86374658987572,0.5735980041219222,0.10003732736095561,0.8293239319784322,0.7996237064910631,0.47699348355966775,0.2807393179886017,0.12840119798636335,0.03627032388838576,0.05402109627461741
0.15146724631953365,0.683758872761945,0.8610184904516521,0.5753335502766026,0.10181037700634567,0.825694732476151,0.7972718720602069,0.4822165845893648,0.283730596051513,0.13037660103230742,0.03946176736964679,0.05633802816901409
0.1502815927279913,0.6740120775505879,0.8549560472870568,0.580865603644647,0.10507652108995896,0.8167772708419744,0.7840075258701786,0.4794309307068597,0.28313234043893076,0.1285605046836169,0.03532151636692976,0.05194805194805195
0.15749431874320718,0.6741180209767984,0.8494998484389209,0.5768521531619482,0.11179544606196344,0.8131480713396931,0.776011288805268,0.48032631945480775,0.2857142857142857,0.12973937424329318,0.03661534480527882,0.05585025303335163
0.17458749135460921,0.689267930924886,0.8473022127917551,0.5597136348844777,0.12122060470324751,0.8190584819576939,0.7786453433678269,0.4905238024175496,0.29437324852797636,0.13824635187663287,0.04662095139517835,0.06816657520882874
0.18535717814445213,0.6990147261362432,0.8460139436192786,0.5488664714177243,0.12709966405375142,0.822895064288677,0.7846660395108184,0.4993782022583694,0.3020561100790327,0.14745427897788824,0.056583430370466224,0.0801780379245168
0.17745282086750322,0.6901154783345693,0.8456350409214913,0.5577611454604621,0.12355356476297129,0.8183326420572377,0.7745061147695202,0.4979356314977864,0.30470102962939644,0.15232906391384693,0.06080993660240653,0.08310468873849157
0.17221618417152457,0.6794151922873185,0.8419975750227342,0.5661134613298622,0.12336692795819339,0.8105557859809207,0.7528692380056443,0.48808635527035765,0.3030951856166756,0.15398585356528388,0.06231940311381378,0.08200719468325103
0.17755162533346508,0.6886322703676236,0.8444983328281298,0.5584119752684673,0.12430011198208289,0.8167772708419744,0.7389463781749765,0.4834104362532955,0.30388236405428387,0.1591792518957497,0.06969422521240351,0.0867020303640022
0.18802489872542238,0.7144824663629621,0.8549560472870568,0.5395379108363163,0.12280701754385966,0.8365823309829947,0.7403574788334901,0.48291299805999105,0.30784974337982934,0.16838717899700503,0.08090740501142882,0.0982257179440278
0.198300563185456,0.7363068121623052,0.8626856623219158,0.522616335828181,0.12290033594624862,0.852550808793032,0.7412982126058325,0.4818186340347212,0.311155892817784,0.17647995921748552,0.09082675637210508,0.10913968660447534
0.19276751309159174,0.7360949253098844,0.8667778114580177,0.525870484868207,0.11776782381485632,0.8552467855661552,0.7263405456255879,0.47172063871064024,0.3067791807046822,0.17683043395144332,0.0914736705912796,0.10682275471007867
0.17705760300365578,0.7360949253098844,0.8787511367080933,0.5344397440069422,0.10302351623740204,0.8634384072998755,0.7068673565380996,0.4554544097895836,0.30022985610378167,0.1747275855476964,0.08875663087074656,0.09962807145905739
0.17300661989921945,0.7439347388494544,0.8875416792967566,0.5325957262175941,0.0956513624486749,0.8732890916632103,0.6968015051740357,0.44605282793612894,0.29686073239081834,0.17542853501561206,0.09005045930909562,0.09938418389122615
0.1782432565951981,0.7630045555673269,0.8971658078205517,0.5200130165961601,0.09229189996267267,0.8892575694732476,0.7002822201317027,0.44232204148634535,0.29556975975314087,0.1789014210157395,0.09483762453098721,0.10523748551917567
0.18199782630174882,0.7800614471872019,0.9064868141861171,0.5092743247640742,0.08827920865994776,0.9038780588967235,0.7068673565380996,0.43958613142317066,0.29566422116565383,0.18246989103421907,0.0997541725967137,0.11048106822754711
0.17093172611402035,0.7719038033690009,0.9091391330706275,0.5194706584228225,0.08146696528555435,0.9017005391953548,0.7028222013170272,0.4342137989354823,0.2911300733650304,0.1789014210157395,0.09539828352093847,0.10481068227547102
0.1518624641833811,0.7547409683229155,0.9114883297969082,0.538670137758976,0.0710153042179918,0.8949605972625466,0.6949200376293508,0.4230711834054619,0.28391951887653893,0.17170075829987894,0.08634148445249495,0.09395768550698129
0.14968876593222014,0.7552706854539675,0.9135344043649591,0.5396463824709838,0.06868234415826802,0.896619659892161,0.6947318908748824,0.42063373625826994,0.28146352215120124,0.17055375007965337,0.08504765601414586,0.0907871471251753
0.15917399466455884,0.772433520500053,0.9184601394361928,0.5256535415988719,0.07017543859649125,0.9083367897138117,0.7104421448730008,0.43033378102770725,0.2878868982020845,0.17616134582297838,0.09181869150817269,0.09834766172794343
0.1647070447584231,0.7846170145142493,0.9230069718096393,0.5164334526521315,0.0698954833893244,0.9174616341766901,0.7268109125117591,0.4393374123265184,0.29317673730281185,0.18154591219014848,0.09759779186613189,0.10566428876288032
0.1623357375753384,0.7799555037609915,0.9214913610184905,0.5200130165961601,0.0697088465845465,0.9141435089174618,0.7234242709313263,0.4384420235785703,0.29188576466513433,0.18167335754795133,0.09798594039763661,0.10432290713980856
0.15591344728781742,0.7725394639262633,0.9211124583207032,0.5273890877535524,0.06700261291526691,0.9103069265864787,0.7098777046095954,0.4306819877630204,0.28757202682704114,0.17810488752947173,0.09324190279035668,0.09871349307969027
0.15788953660705465,0.7766712575484691,0.9226280691118521,0.5241349387135263,0.06690929451287796,0.9133139776026545,0.7031984948259642,0.42535939909466247,0.28536792720173815,0.1758427324284713,0.08996420407987235,0.09596975794158892
0.16371900009880447,0.7827100328424621,0.9224765080327372,0.5178435839028094,0.06980216498693544,0.9161136457901287,0.7137347130761994,0.43098045067900315,0.2871941811769892,0.17800930351111963,0.09285375425885196,0.1013962563258338
0.16915324572670684,0.7851467316453012,0.9199757502273417,0.5136131901507756,0.07390817469204929,0.9155951887183741,0.7216368767638758,0.43486046858677807,0.28974463931483996,0.18119543745619066,0.0971233881054039,0.10706664227790991
0.16381780456476633,0.7838754105307764,0.9231585328887543,0.5173012257294717,0.06942889137737965,0.9171505599336376,0.7024459078080902,0.42675222603591506,0.28656443842690266,0.17839163958452814,0.09496700737482212,0.10413999146393513
0.1518624641833811,0.7720097467952113,0.9238405577447713,0.5298839353509057,0.06336319522209781,0.911862297801742,0.6735653809971778,0.4143660150226335,0.28058188230108,0.1728796278595552,0.08785095096390219,0.0949332357783062
0.15472779369627507,0.7703146519758448,0.9203546529251289,0.5292331055429005,0.06681597611048902,0.9086478639568644,0.6641580432737535,0.4134706262746854,0.28020403665102805,0.1728477665201045,0.08772156812006729,0.09432351685872813
0.16589269834996542,0.779319843203729,0.918308578357078,0.5184944137108146,0.07334826427771558,0.9116549149730402,0.6738476011288805,0.42053424861960903,0.28458074876412986,0.17797744217166891,0.09427696554103593,0.1030424974086946
0.17448868688864738,0.7827100328424621,0.9141406486814188,0.5119861156307626,0.07997387084733111,0.9105143094151805,0.6866415804327375,0.42968711137641147,0.288611102364684,0.18262919773147263,0.10070298011816968,0.11102981525516738
0.1716233573757534,0.7676660663205848,0.9055774477114277,0.521206204577503,0.08398656215005601,0.8972418083782662,0.6881467544684854,0.4288912102671243,0.28839069240215376,0.18154591219014848,0.09889162030448098,0.10767636119748797
0.16045845272206305,0.7461595507998728,0.898757199151258,0.5384531944896409,0.08286674132138859,0.8819991704686851,0.6788334901222953,0.42222553847684424,0.28533644006423375,0.17734021538265468,0.09121490490360978,0.09859154929577466
0.1610512795178342,0.739908888653459,0.8938314640800243,0.5412734569909968,0.08613288540500189,0.8755703027789299,0.6799623706491063,0.4215291250062179,0.2842658773890866,0.17581087108902058,0.08875663087074656,0.09542101091396867
0.16796759213516452,0.7482784193240808,0.8945134889360413,0.5331380843909318,0.08902575587905937,0.8802364164247201,0.6952963311382878,0.42933890464109836,0.2883592052646494,0.17963423182310584,0.09436322077025922,0.10182305956953845
0.17182096630767713,0.7501854009958682,0.892922097605335,0.5301008786202408,0.09182530795072791,0.8800290335960183,0.7166509877704609,0.4375963786499527,0.29308227589029884,0.18482763015357168,0.10074610773278132,0.10920065849643315
0.16638672067977472,0.7333403962284138,0.885040921491361,0.541707343529667,0.09406494960806273,0.8664454583160515,0.7140169332079022,0.4362035517087002,0.2930507887527945,0.18450901675906453,0.09932289645059733,0.10706664227790991
0.15245529097915225,0.710774446445598,0.8796605031827828,0.5609068228658206,0.0908921239268384,0.8516175860638739,0.6994355597365944,0.42605581256528874,0.28624956705185933,0.178296055566176,0.09125803251822143,0.09779891470032316
0.15077561505780063,0.7080199173641274,0.8789026977872083,0.5631847271938388,0.09051885031728259,0.849751140605558,0.6936970837253057,0.423518877779436,0.28316382757643505,0.17485503090549928,0.08785095096390219,0.09340893847936102
0.1639166090307282,0.7289967157537873,0.8839042133979995,0.5452869074736957,0.09359835759611798,0.8634384072998755,0.6997177798682972,0.42754812714520224,0.286501464151894,0.1788376983368381,0.09350066847802649,0.10066459362234012
0.1692520501926687,0.7440406822756647,0.8904971203394969,0.5346566872762772,0.09210526315789476,0.8753629199502281,0.70310442144873,0.42938864846042885,0.2884221795396581,0.18113171477728926,0.09733902617846209,0.10663983903420525
0.15966801699436814,0.736518699014726,0.8924674143679903,0.5437683045883501,0.0863195222097798,0.8729780174201576,0.6955785512699906,0.42222553847684424,0.28316382757643505,0.17743579940100682,0.09263811618579378,0.1013962563258338
0.14553897836182195,0.7243352050005295,0.8945134889360413,0.5577611454604621,0.07838745800671895,0.8684155951887185,0.6795860771401694,0.41018753419887577,0.275323530337857,0.17052188874020263,0.08310691335662226,0.08987256874580819
0.14395810690643218,0.7280432249178937,0.8984540769930283,0.5566764291137867,0.07530795072788356,0.8729780174201576,0.673659454374412,0.4058598219171268,0.27204886803740674,0.1674313388134837,0.07948419372924484,0.0866410584720444
0.15403616243454205,0.7469011547833456,0.9042133979993938,0.5414904002603319,0.07652108995893993,0.8861468270427209,0.6904045155221072,0.4140178082873203,0.2771182971756038,0.1734212706302173,0.08703152628628112,0.09529906713005307
0.1621381286434147,0.7665006886322703,0.9120187935738103,0.5270636728495498,0.07549458753266147,0.9010783907092492,0.6995296331138288,0.42108143063224396,0.28221921345130513,0.17871025297903523,0.09371630655108466,0.10231083470520091
0.15611105621974114,0.7720097467952113,0.9205062140042437,0.5276060310228875,0.06746920492721166,0.9095810866860224,0.6971777986829727,0.42008655424563496,0.2821562391762965,0.17740393806155613,0.09285375425885196,0.10017681848667764
0.14119158185950004,0.7615213476003813,0.9244468020612308,0.5411649853563293,0.05795072788353866,0.9070924927416011,0.6859830667920978,0.41406755210665075,0.27828332126326394,0.17361243866692158,0.0866433777547764,0.0908481190171331
0.14316767117873727,0.7681957834516367,0.9278569263413156,0.5366091767002928,0.056737588652482296,0.9127955205309001,0.6857949200376293,0.41322190717803314,0.27727573286312546,0.17332568661186518,0.08599646353560185,0.09029937198951285
0.15729670981128346,0.7804852208920435,0.9257350712337074,0.5225078641935135,0.06476297125793208,0.9173579427623394,0.6969896519285042,0.41839526438839975,0.2808022922636103,0.17597017778627416,0.09168930866433779,0.09901835253947931
0.16944965912459242,0.7899141858247696,0.9231585328887543,0.5111183425534223,0.07213512504665923,0.9201576109498134,0.7015051740357479,0.42222553847684424,0.2830693661639221,0.1789332823551902,0.09733902617846209,0.10706664227790991
0.16322497776899517,0.7856764487763535,0.9249014852985754,0.5166503959214666,0.06802911534154538,0.9193280796350063,0.6934148635936029,0.4171019250858081,0.2808022922636103,0.1770534633275983,0.0954414111355501,0.10413999146393513
0.15245529097915225,0.7758237101387857,0.9260381933919369,0.5276060310228875,0.06224337439343041,0.9151804230609706,0.6672624647224835,0.40491468934984826,0.2738436348751535,0.17122283820811826,0.08849786518307674,0.09383574172306568
0.1554194249580081,0.7760355969912066,0.923992118823886,0.525870484868207,0.06494960806270998,0.91393612608876,0.6507055503292568,0.3992438939461772,0.2712931767373028,0.17049002740075195,0.08685901582783458,0.09292116334369857
0.1677699832032408,0.7818624854327787,0.9186874810548652,0.5161080377481289,0.07400149309443825,0.9132102861883037,0.6528692380056443,0.405213152265831,0.2749141975503007,0.17383546804307654,0.09155992582050289,0.10066459362234012
0.1734018377630669,0.7811208814493059,0.913837526523189,0.5133962468814406,0.07969391564016426,0.9094773952716715,0.6619002822201316,0.41068497239218027,0.2777165527881861,0.17644809787803478,0.09561392159399665,0.10676178281812085
0.1649046536903468,0.7621570081576438,0.9067899363443469,0.527714502657555,0.08006718924972007,0.8953753629199502,0.6564440263405456,0.4068049544844053,0.27585881167543064,0.1740266360797808,0.0930262647172985,0.10261569416498995
0.15265289991107597,0.7446763428329272,0.9036829342224917,0.5434428896843475,0.07614781634938411,0.8846951472418083,0.6489181561618061,0.4018305725513605,0.2727100979249976,0.17055375007965337,0.08741967481778584,0.09444546064264375
0.15047920165991505,0.7452060599639792,0.9057290087905427,0.5444191343963554,0.07381485628966035,0.8863542098714227,0.6536218250235183,0.40168134109336917,0.2712302024622942,0.16940674185942778,0.08543580454565058,0.09255533199195172
0.16292856437110959,0.7539993643394427,0.9024704455895726,0.5330296127562643,0.08174692049272118,0.8884280381584404,0.6757290686735654,0.41212754315276334,0.2777795270631947,0.17456827885044288,0.09125803251822143,0.10017681848667764
0.16737476533939336,0.7547409683229155,0.8995907850863898,0.5302093502549083,0.08557297499066818,0.8867689755288263,0.6964252116650987,0.4197383475103218,0.281054189363645,0.1770534633275983,0.09479449691637556,0.1047497103835132
0.1546289892303132,0.7432990782921919,0.9011821764170961,0.5430090031456775,0.0786674132138858,0.8823102447117378,0.6920978363123236,0.4158583296025469,0.2779369627507164,0.17332568661186518,0.08987794885064909,0.0988964087555637
0.14089516846161446,0.7340820002118867,0.9051985450136406,0.5553747694977763,0.0697088465845465,0.8805474906677727,0.6846660395108184,0.40973983982490175,0.27387512201265785,0.16880137640986428,0.08289127528356408,0.08987256874580819
0.14099397292757632,0.7335522830808346,0.9047438617762958,0.5555917127671114,0.06998880179171335,0.8800290335960183,0.6867356538099717,0.40954086454758,0.27333984067508427,0.16755878417128656,0.08146806400138008,0.08816535577098958
0.15344333563877086,0.7431931348659815,0.902015762352228,0.5437683045883501,0.07754759238521838,0.8828287017834924,0.7005644402634055,0.41590807342187736,0.27592178595043926,0.1697890779328363,0.08504765601414586,0.09395768550698129
0.16115008398379607,0.7489140798813433,0.9001970294028494,0.5366091767002928,0.08230683090705489,0.8843840729987558,0.7108184383819379,0.41978809132965234,0.27733870713813413,0.17192378767603392,0.08754905766162074,0.0988964087555637
0.15383855350261832,0.7367305858671469,0.8970900272809943,0.546805510359041,0.08081373646883168,0.8762961426793862,0.7038570084666039,0.41471422175794664,0.27337132781258855,0.1689288217676671,0.08345193427351534,0.09511615145417963
0.1420808220531568,0.7176607691492742,0.8924674143679903,0.5630762555591712,0.07801418439716314,0.8638531729572791,0.6888993414863593,0.4033726309506044,0.2663811832866274,0.16255655387752502,0.07564583602880927,0.08517773306505702
0.13714059875506374,0.7132111452484372,0.8930736586844499,0.5680659507538778,0.07540126913027251,0.861986727498963,0.6866415804327375,0.3991444063075163,0.26446046789886335,0.16019881475817244,0.07327381722516929,0.08225108225108226
0.1423772354510424,0.7205212416569551,0.8943619278569264,0.5614491810391583,0.07708100037327362,0.8664454583160515,0.6952022577610536,0.40212903546734324,0.2669794388992097,0.16182374307015865,0.07624962263337215,0.08639717090421317
0.14455093370220334,0.7285729420489457,0.8983782964534709,0.5561340709404491,0.07558790593505041,0.8731854002488594,0.7061147695202258,0.4057105904591355,0.2681444629868699,0.16418148218951126,0.07931168327079831,0.09011645631363943
0.13555972729967394,0.7291026591799977,0.9057290087905427,0.5607983512311531,0.06681597611048902,0.878473662380755,0.7077140169332079,0.4043177635178829,0.2679555401618439,0.16383100745555343,0.07819036529089578,0.08700688982379125
0.12439482264598359,0.7243352050005295,0.9108820854804486,0.5693676103698883,0.05841731989548341,0.8796142679386146,0.7007525870178739,0.4018305725513605,0.2662552347366101,0.16150512967565156,0.07374822098589728,0.08127553197975734
0.1261733030332971,0.7297383197372602,0.9133070627462868,0.5655711031565246,0.05767077267637181,0.8839693073413522,0.7,0.4024772422026564,0.2660348247740798,0.1619193270885108,0.07482641135118819,0.08243399792695567
0.13546092283371208,0.7441466257018752,0.9164898454076994,0.5530968651697582,0.06019036954087348,0.8931978432185815,0.7142991533396048,0.4090434263542755,0.27044302402468595,0.16606130121710316,0.0799154698753612,0.08895799036644107
0.1420808220531568,0.7552706854539675,0.9194452864504395,0.5438767762230177,0.061496827174318806,0.9006636250518456,0.7196613358419567,0.4125752375267373,0.27204886803740674,0.16841904033645574,0.08349506188812698,0.09292116334369857
0.1377334255508349,0.7532577603559698,0.9212640193998183,0.5472393968977113,0.05832400149309445,0.9009746992948985,0.7010348071495767,0.40630751629110085,0.26867974432444347,0.16596571719875106,0.08034674602147755,0.08895799036644107
0.13555972729967394,0.7521983260938658,0.9221733858745074,0.5489749430523918,0.05664427025009333,0.9009746992948985,0.6693320790216368,0.3948664378450978,0.26386221228628104,0.1622698018224686,0.07577521887264417,0.08322663252240717
0.1428712577808517,0.7655471977963766,0.9261139739314944,0.5381277795856384,0.05776409107876075,0.9102032351721276,0.6527751646284101,0.3904889817440183,0.2621933939985516,0.16166443637290512,0.07620649501876053,0.08456801414547895
0.15759312320916907,0.7841932408094078,0.9281600484995454,0.5205553747694978,0.06336319522209781,0.9207797594359188,0.6509877704609595,0.3939213052778192,0.2663182090116188,0.1664436372905117,0.08362444473196189,0.09414060118285471
0.16223693310937654,0.7800614471872019,0.9217187026371628,0.5201214882308276,0.06961552818215754,0.9143508917461634,0.6543744120413922,0.3982490175595682,0.2699077426871123,0.1697253552539349,0.08871350325613492,0.10200597524541187
0.15660507854955044,0.7582371013878588,0.9103516217035466,0.5343312723722746,0.07390817469204929,0.8958938199917047,0.6430856067732831,0.39412028055514103,0.2665386189741491,0.16698528006117375,0.08539267693103897,0.09932321199926834
0.14741626321509732,0.7387435109651446,0.9034555926038194,0.549408829591062,0.07381485628966035,0.8815844048112818,0.6303857008466603,0.3875540964035219,0.261941496898517,0.1622379404830179,0.07866476905162376,0.09054325955734407
0.14870072127260153,0.7330225659497827,0.8983782964534709,0.5515782622844126,0.07754759238521838,0.8753629199502281,0.6370649106302916,0.39103616375665323,0.2634213923612205,0.16239724718027143,0.0785785138224005,0.08950673739406136
0.15917399466455884,0.7417099268990358,0.8965595635040922,0.5413819286256644,0.08361328854050022,0.8783699709664039,0.6535277516462841,0.3991444063075163,0.2679555401618439,0.16714458675842733,0.0849614007849226,0.09596975794158892
0.16381780456476633,0.7441466257018752,0.8947408305547135,0.5375854214123006,0.08697275102650244,0.8782662795520532,0.6689557855126999,0.40481520171118734,0.27182845807487643,0.17061747275855477,0.08888601371458146,0.0998109871349308
0.15067681059183877,0.7325987922449411,0.8965595635040922,0.5507104892070723,0.07960059723777531,0.8739112401493156,0.6650047036688617,0.4016315972740387,0.26946692276205175,0.16835531765755432,0.08470263509725277,0.09444546064264375
0.1303230906036953,0.7218985061976904,0.904592300697181,0.5673066493112051,0.06504292646509893,0.8742223143923683,0.6555973659454375,0.39103616375665323,0.2629175981611512,0.16271586057477858,0.07711217492560488,0.08395829522590087
0.11994862167769983,0.7393791715224071,0.9249772658381328,0.564052500271179,0.04759238521836506,0.896619659892161,0.6588899341486358,0.38327612794110333,0.2603986271608048,0.16195118842796152,0.07417949713201363,0.07749527467837328
0.1166880743009584,0.7901260726771903,0.963776902091543,0.5398633257403189,0.022116461366181433,0.9480506014102033,0.669426152398871,0.37347659553300505,0.2583204760855191,0.16418148218951126,0.07577521887264417,0.07609292116334371
0.10858610809208576,0.8205318359995761,0.9917399211882388,0.5287992190042304,0.0011198208286674405,0.9820613853172958,0.6866415804327375,0.36944734616723873,0.25939103876066627,0.168833237749315,0.08056238409453574,0.07633680873117493
0.1128347001284458,0.8161881555249496,0.9854501364049713,0.5286907473695629,0.006998880179171371,0.9756325176275406,0.7172154280338664,0.39521464458041095,0.2869422840769546,0.19961129165870134,0.10812092983137103,0.09511615145417963
0.1615453018476435,0.8116325881979022,0.9448317672021825,0.5042846295693676,0.05505785740948117,0.9455620074657819,0.7638758231420508,0.46838780281550024,0.36037028873705096,0.281208181991971,0.18475870099624792,0.15907566611791965
0.2716134769291572,0.8064413603135925,0.8566989996968778,0.44646924829157175,0.16125419932810753,0.8828287017834924,0.8000940733772343,0.5729493110481023,0.4775969016656696,0.41400624482253234,0.31142450511062236,0.27595878300103655
0.43404801897045747,0.8201080622947344,0.7418157017277963,0.35036337997613626,0.30869727510265027,0.8108668602239736,0.7866415804327375,0.6989504054121276,0.6316004911993451,0.5853883897279042,0.4751369301763919,0.43570513993049204
0.6063630076079439,0.8532683546985909,0.6333737496210974,0.23885453953791083,0.45679357969391565,0.752903359601825,0.728316086547507,0.8187335223598469,0.7863597720331246,0.7542534888166699,0.6382886962522103,0.6017925736235596
0.7535816618911175,0.893420913232334,0.5491815701727797,0.13743356112376603,0.578200821201941,0.7149523019493986,0.6214487300094073,0.88902153907377,0.8755943197203944,0.8521633849487033,0.7494716867210075,0.7333089445765504
0.8835095346309652,0.9034855387223223,0.45672931191270083,0.06096105868315436,0.6964352370287422,0.6566777270841975,0.4633113828786454,0.9056359747301398,0.9058849459995593,0.877843624545976,0.8069176693837065,0.8309249436010001
0.9110759806343247,0.8428858989299712,0.392240072749318,0.07679791734461441,0.7492534527808884,0.5828494400663625,0.36801505174035753,0.8514152116599513,0.8633458232312101,0.8159370419932455,0.7665502221072154,0.8283641241387721
0.8012054144847347,0.7302680368683122,0.3959533191876326,0.19481505586289186,0.6950354609929078,0.5302778929904605,0.27300094073377235,0.6380142267323285,0.6567272269278001,0.6245141145733767,0.6002070125501359,0.693494299128102
0.5898626617923131,0.6900095349083588,0.5292512882691724,0.3314893155439852,0.5131578947368421,0.6017212774782248,0.15380997177798683,0.32507585932447897,0.332472684908215,0.3358822404893902,0.34200198387027214,0.45966709346991036
0.3668609821163917,0.7306918105731539,0.7293876932403759,0.4330187655927975,0.2846211272863009,0.758606387391124,0.08560677328316088,0.09441376908919069,0.07229446770994048,0.07621232396609955,0.08836848233924183,0.21266995914883238
0.28692816915324576,0.7401207755058796,0.7974386177629584,0.4720685540731099,0.20492721164613661,0.8097262546661137,0.12643461900282216,0.09053375118141574,0.035234106867344704,0.01892563563372204,0.015094665114072562,0.1252972379732943
0.27200869479300466,0.7560122894374403,0.8202485601697485,0.4720685540731099,0.18393057110862263,0.8331605143094153,0.29651928504233305,0.22419539372233,0.1346704871060172,0.08717262473714395,0.05451330486910771,0.1341991341991342
0.24058887461713271,0.7862061659074054,0.8658684449833283,0.47391257186245794,0.14091078760731618,0.8791995022812111,0.47770460959548444,0.33970054220763074,0.22037847539280206,0.1458612120053527,0.08923103463147454,0.13602829095786842
0.20521687580278633,0.7909736200868736,0.8964837829645348,0.49094261850526083,0.10535647629712581,0.9024263790958109,0.5980244590780809,0.4060090533751181,0.2680814887118612,0.17396291340087938,0.0988053650752577,0.12291933418693983
0.17814445212923624,0.7558004025850195,0.8920885116702031,0.5237010521748563,0.09537140724150804,0.882206553297387,0.6465663217309501,0.42157886882554846,0.2789130640133506,0.17711718600649973,0.09453573122870576,0.1104200963355893
0.15630866515166486,0.7261362432461066,0.8876174598363141,0.5509274324764074,0.08781261664800301,0.8645790128577354,0.6630291627469426,0.41332139481669405,0.2736861991876319,0.1683234563181036,0.08297753051278736,0.0957868422657155
0.14761387214702104,0.729420489458629,0.8966353440436495,0.5539646382470983,0.0781075027995521,0.8723558689340523,0.6743179680150517,0.40630751629110085,0.2703800497496773,0.1626202765564264,0.07706904731099325,0.08853118712273643
0.1518624641833811,0.744888229685348,0.9044407396180663,0.5437683045883501,0.07530795072788356,0.8853172957279138,0.6682031984948259,0.4054121275431528,0.2699077426871123,0.1622698018224686,0.07685340923793506,0.08816535577098958
0.15196126864934295,0.7429812480135607,0.9030009093664747,0.5447445493003579,0.07624113475177308,0.8833471588552468,0.6594543744120414,0.4051634084465005,0.26861677004943485,0.16058115083158095,0.07616336740414889,0.08767758063532713
0.1395119059381484,0.7146943532153829,0.892240072749318,0.5660049896951946,0.07698768197088468,0.8621941103276648,0.6541862652869238,0.40197980400935185,0.2659718504990712,0.15599311795067863,0.06960796998318025,0.08090970062801049
0.12834700128445806,0.6888441572200446,0.8823886026068506,0.5854214123006833,0.07773422918999628,0.8428038158440481,0.655409219190969,0.4000397950554644,0.2634528794987248,0.1512776397119735,0.06171561650925089,0.07042253521126761
0.13022428613773343,0.6822756647949993,0.8762503789026979,0.5876993166287016,0.08240014930944384,0.8354417254251348,0.6691439322671684,0.4033726309506044,0.2642715450738374,0.15016249283119862,0.05938672532022255,0.06676422169379917
0.1395119059381484,0.6872550058268884,0.8726129130039407,0.5801063022019742,0.08902575587905937,0.835338034010784,0.6870178739416745,0.4125752375267373,0.2692779999370257,0.15379468552857964,0.06352697632293959,0.07127614169867692
0.14198201758719495,0.6873609492530989,0.8709457411336768,0.5786961709512962,0.09126539753639419,0.8341974284529241,0.6979303857008466,0.41720141272446903,0.27091533108725085,0.1546230803542981,0.06477767714667704,0.07341015791720018
0.13220037545697066,0.6713634918953278,0.8669293725371324,0.592255125284738,0.08911907428144832,0.8236209041891333,0.6920037629350893,0.4119783116947719,0.2679240530243396,0.15044924488625502,0.05973174623711564,0.06584964331443205
0.12311036458847939,0.6537768831444007,0.8613216126098819,0.6061394945221824,0.08827920865994776,0.811281625881377,0.6827845719661335,0.40556135900114415,0.2632324695361945,0.14544701459249346,0.05257256221158408,0.05774038168404366
0.12311036458847939,0.6484797118338806,0.8575325856320097,0.6088512853888708,0.09061216871967155,0.8060970551638325,0.6882408278457197,0.40566084663980495,0.26225636827356025,0.14417256101446504,0.05045930909561393,0.056764831412718736
0.13318842011658927,0.6580146201928169,0.8566232191573204,0.5985464800954551,0.09593131765584176,0.8101410203235173,0.7029162746942615,0.41167984877878927,0.2651846720614629,0.14617982539985983,0.05395264587915644,0.06121577952563869
0.136251358561407,0.6640533954868099,0.8585935131858139,0.5937737281700836,0.09611795446061966,0.8143923683119038,0.7115710253998119,0.4155101228672337,0.2674517459617746,0.1482826738036067,0.05675594082891277,0.06359368331199318
0.12330797352040312,0.6514461277677719,0.8595786602000606,0.6073326825035253,0.08949234789100413,0.8088967233513066,0.7081843838193791,0.411878824056111,0.26531062061148025,0.14525584655578921,0.05244317936774917,0.057557466008170244
0.10957415275170437,0.6351308401313698,0.8582903910275841,0.6231695411649854,0.08370660694288916,0.7999792617171299,0.7043273753527751,0.4087449634382928,0.2629490852986555,0.14175109921621107,0.04666407900978997,0.04877751356624597
0.11095741527517045,0.6415933891302045,0.8619278569263412,0.6191560906822865,0.08221351250466595,0.805682289506429,0.7138287864534336,0.4144157588419639,0.2656884662615322,0.14398139297776077,0.0482598007504205,0.05017986708127554
0.11856535915423376,0.6574849030617649,0.8673840557744771,0.6067903243301876,0.08240014930944384,0.817192036499378,0.7358419567262465,0.42615530020394965,0.2730564564375453,0.1497801567577901,0.0543839220252728,0.05914273519907323
0.12093666633731845,0.6614048098315499,0.8684449833282814,0.6035361752901616,0.08286674132138859,0.8197843218581502,0.7509877704609595,0.43192558324628166,0.2767404515255518,0.15274326132670618,0.057704748350368755,0.06280104871654169
0.11194545993478905,0.6539887699968215,0.8700363746589876,0.6122139060635644,0.07764091078760735,0.8172957279137287,0.7476011288805267,0.429189673183107,0.27459932617525745,0.14990760211559293,0.05395264587915644,0.05694774708859217
0.10127457761090802,0.6443479182116749,0.8713246438314641,0.6229525978956503,0.07176185143710341,0.8134591455827457,0.7466603951081843,0.42675222603591506,0.2725211750999717,0.14576562798700057,0.0486048216673136,0.04889945735016158
0.10463392945361132,0.6459370696048309,0.8698848135798727,0.6203492786636295,0.0742814483016051,0.8132517627540439,0.7548447789275634,0.43107993831766406,0.27516609465033537,0.14678519084942332,0.0494673739595463,0.04920431680995062
0.11658926983499655,0.6622523572412331,0.8723855713852683,0.6054886647141773,0.07838745800671895,0.822895064288677,0.7731890874882409,0.4413769089190668,0.2811801379136623,0.1533804881157204,0.05701470651658258,0.05780135357600147
0.11777492342653888,0.6697743405021717,0.8767808426796,0.6009328560581408,0.07624113475177308,0.8296350062214848,0.7816556914393227,0.4484902750833209,0.28486413300166885,0.15729943286815778,0.06141372320696944,0.06493506493506494
0.10740045450054343,0.6591799978811314,0.8771597453773872,0.6119969627942292,0.07110862262038077,0.8247615097469929,0.7773283160865474,0.4454559021041635,0.28240813627633116,0.1531574587395654,0.05580713330745677,0.05828912871166393
0.09633435431281494,0.6453014090475684,0.8757956956653531,0.6252305022236685,0.06672265770810006,0.8169846536706762,0.7691439322671683,0.43883997413321396,0.2784092698132813,0.1482189511247053,0.04920860827187649,0.048838485458203774
0.10058294634917499,0.6538828265706113,0.8785995756289785,0.6185052608742815,0.06700261291526691,0.8231024471173788,0.7690498588899342,0.4389892055912053,0.2781573727132467,0.148027783088001,0.04890671496959503,0.048716541674288155
0.11352633139017884,0.6718932090263798,0.8816307972112762,0.6022345156741512,0.07120194102276971,0.8339900456242223,0.7746001881467545,0.4451076953688504,0.28344721181397403,0.151883005161537,0.05507396385905897,0.05713066276446559
0.11441557158383558,0.6766606632058481,0.8843588966353441,0.5993057815381279,0.06998880179171335,0.838137702198258,0.7804327375352774,0.44888822563796454,0.28558833716426846,0.1530300133817626,0.05813602449648511,0.06103286384976526
0.1015709910087936,0.6572730162093441,0.8804183085783571,0.6162273565462631,0.06634938409854425,0.8260058067192038,0.7690498588899342,0.4432174302342934,0.2808022922636103,0.14745427897788824,0.05119247854401174,0.0531674897872081
0.09396304712973026,0.6443479182116749,0.8769324037587147,0.6269660483783491,0.06485628966032105,0.8172957279137287,0.7634054562558796,0.44102870218375373,0.2772442457256211,0.14292996877588734,0.04541337818605254,0.04627766599597586
0.10018772848532753,0.6527174488822968,0.878144892391634,0.6193730339516217,0.06709593131765587,0.8221692243882207,0.7667920978363123,0.44466000099487635,0.27831480840076833,0.14270693939973236,0.04446457066459655,0.04725321626730078
0.11520600731153048,0.6670198114207012,0.8768566232191574,0.6037531185594966,0.07493467711832774,0.8282870178349233,0.7787394167450612,0.4535641446550266,0.28344721181397403,0.14656216147326834,0.04959675680338122,0.055057618437900135
0.12172710206501335,0.6639474520605996,0.869733252500758,0.6016921575008135,0.0824934677118328,0.8219618415595189,0.784101599247413,0.4606775108192807,0.28561982430177274,0.14723124960173328,0.05058869193944885,0.05835010060362174
0.11589763857326352,0.64042801144189,0.8573052440133374,0.6169866579889359,0.08734602463605826,0.8019493985897967,0.7742238946378174,0.4575436502014625,0.28288044333889606,0.14248391002357738,0.045111484883771084,0.05243582708371441
0.11441557158383558,0.623900836953067,0.8466201879357381,0.6263152185703438,0.09322508398656217,0.7864993778515139,0.7619002822201317,0.4573446749241407,0.2818413678012532,0.1391703307207035,0.04118687195411223,0.04902140113407719
0.12548167177156408,0.6215700815764382,0.8365413761745984,0.6213255233756373,0.10460992907801421,0.7785151389464954,0.7686735653809971,0.46440829726906435,0.28508454296419916,0.13939336009685846,0.04230818993401476,0.05158222059630511
0.14148799525738562,0.630469329378112,0.8305547135495606,0.6079835123115305,0.11590145576707729,0.778722521775197,0.7882408278457196,0.4771924588369896,0.2911615605025348,0.14302555279423948,0.0481304179065856,0.0597524541186513
0.14563778282778383,0.6295158385422183,0.826689906032131,0.6062479661568501,0.12028742067935799,0.7756117793446703,0.7981185324553152,0.48743968561906187,0.2956957083031582,0.14503281717963423,0.050761202397895375,0.06493506493506494
0.1325955933208181,0.6091747007098208,0.8221430736586846,0.6238203709729906,0.11692795819335575,0.7625466611364579,0.796519285042333,0.4880366114510272,0.2951919141030889,0.14203785127126747,0.04515461249838272,0.059386622766904464
0.12755656555676317,0.5978387541053077,0.8178993634434678,0.6323896301117258,0.11711459499813366,0.7541476565740357,0.7893697083725304,0.485897627219818,0.29396391574042,0.1386286879500414,0.04019493681804462,0.05200902384000976
0.1359549451635214,0.6038775293993007,0.8157017277963019,0.6246881440503309,0.12243374393430387,0.7555993363749481,0.7940733772342428,0.49410535740934197,0.2991278062911301,0.1419422672529153,0.043602018372363854,0.05633802816901409
0.1510720284556862,0.6218879118550693,0.8170657775083359,0.6071157392341903,0.12877939529675253,0.765346329323932,0.8117591721542803,0.5086802964731633,0.3106520986177147,0.1525202319505512,0.056454047526631315,0.0728004389976221
0.15907519019859698,0.6382031994914714,0.8225977568960291,0.5944245579780887,0.12915266890630836,0.7770634591455828,0.8256820319849483,0.5181316221459484,0.31962593280644863,0.16172815905180654,0.06783973778410317,0.0842021827937321
0.15502420709416068,0.6451954656213581,0.8307062746286754,0.5931228983620783,0.12215378872713702,0.7860846121941104,0.8234242709313264,0.5196239367258618,0.3238766963695331,0.16695341872172306,0.07185060594298531,0.08615328333638193
0.1523564865131904,0.6598156584383937,0.8432100636556532,0.5870484868206964,0.1131952220977977,0.8017420157610949,0.812041392285983,0.5158931502760782,0.3259233603073145,0.17240170776779454,0.07693966446715834,0.08938479361014573
0.16243454204130028,0.6885263269414131,0.8560169748408609,0.566872762772535,0.11011571481896233,0.8245541269182912,0.8053621825023517,0.5163408446500523,0.3311817122705375,0.18173708022685275,0.08888601371458146,0.10005487470276204
0.17863847445904554,0.7115160504290707,0.8600333434374053,0.5461546805510359,0.11534154535274357,0.8385524678556616,0.8113828786453434,0.5216136894990798,0.3375736011839164,0.19304785573185496,0.10251433993185838,0.11511493201634047
0.18357869775713864,0.7177667125754845,0.8607153682934223,0.5402972122789891,0.1172079134005226,0.8421816673579429,0.8009407337723424,0.5165398199273741,0.3373217040838818,0.19881475817243358,0.10932850304049685,0.12206572769953052
0.17201857523960082,0.710774446445598,0.8645801758108518,0.5501681310337347,0.10936916759985071,0.8413521360431356,0.7730009407337723,0.49907973934238675,0.3295128939828081,0.1970942458420952,0.10781903652908958,0.11676117309920128
0.1651022626222705,0.7103506727407563,0.8695816914216429,0.5541815815164335,0.10302351623740204,0.8445665698880133,0.7481655691439322,0.481569914938069,0.3203816241065525,0.19390811189702414,0.10398067882865401,0.11017620876775808
0.17112933504594408,0.7283610551965248,0.8778417702334042,0.541707343529667,0.10078387458006721,0.8589796764827872,0.7438381937911571,0.47525244988310206,0.3186813186813187,0.19607468297967248,0.10829344028981758,0.11468812877263583
0.18140499950597766,0.7497616272910265,0.8852682631100334,0.5251111834255342,0.10106382978723406,0.8746370800497719,0.7471307619943555,0.47465552405113665,0.318901728643849,0.2000573504110113,0.11575451761763059,0.12371196878239132
0.17745282086750322,0.7465833245047143,0.8859502879660504,0.528907690638898,0.09873086972751027,0.8734964744919121,0.7428033866415804,0.47007909267273545,0.31562706634339877,0.2004078251449691,0.11730711174364947,0.1257850131089568
0.1634225867009189,0.7279372814916834,0.8834495301606548,0.5461546805510359,0.09369167599850692,0.8626088759850684,0.7239887111947318,0.4551062030542706,0.3083220504423943,0.195469317530109,0.11118299046879719,0.11767575147856839
0.15561703388993184,0.7139527492319101,0.8794331615641104,0.557544202191127,0.09247853676745056,0.8530692658647864,0.7108184383819379,0.44262050440232803,0.2996630876287037,0.18871471356655833,0.103506275067926,0.10913968660447534
0.1610512795178342,0.7073842568068651,0.8705668384358897,0.5579780887297972,0.10050391937290036,0.8437370385732061,0.7050799623706491,0.4376958662886136,0.29512893982808025,0.1858471930159944,0.10087549057661623,0.10743247362965674
0.1705365082501729,0.7071723699544443,0.8631403455592604,0.5527714502657555,0.1095558044046286,0.8386561592700125,0.7000940733772342,0.43530816296075214,0.29386945432790706,0.18603836105269866,0.10376504075559581,0.11188342174257668
0.16658432961169845,0.703146519758449,0.8632919066383753,0.5571103156524569,0.10759611795446064,0.8366860223973455,0.6915333960489181,0.4303835248470378,0.28977612645234424,0.18329828585993754,0.10203993617113039,0.11121273093104081
0.15294931330896155,0.687149062400678,0.862382540163686,0.5727302310445819,0.10171705860395673,0.8282870178349233,0.677516462841016,0.4197383475103218,0.2821562391762965,0.1761294844835277,0.09350066847802649,0.10103042497408696
0.14425452030431776,0.6799449094183705,0.8638223704152773,0.5811910185486495,0.09677118327734231,0.825694732476151,0.6638758231420507,0.4096900960055713,0.27633111873799554,0.17138214490537185,0.0867727605986113,0.09383574172306568
0.15225768204722853,0.6863015149909947,0.862230979084571,0.5735980041219222,0.10143710339678988,0.8277685607631688,0.6669802445907808,0.41138138586280654,0.27752762996316005,0.1736443000063723,0.08901539655841637,0.09688433632095605
0.16095247505187235,0.6967899141858246,0.863064565019703,0.5634016704631739,0.10507652108995896,0.8334715885524678,0.6857949200376293,0.42088245535492214,0.2815264964262099,0.17820047154782387,0.096994005261569,0.10560331687092252
0.16381780456476633,0.6902214217607796,0.8561685359199757,0.565245688252522,0.11067562523329602,0.8255910410618001,0.6973659454374412,0.4262050440232801,0.283730596051513,0.18033518129102147,0.09858972700219952,0.10804219254923482
0.1544313802983895,0.6718932090263798,0.8501818732949379,0.5797808872979716,0.10992907801418442,0.8124222314392369,0.6918156161806209,0.42262348903148783,0.280770805126106,0.17628879118078125,0.09250873334195887,0.1013962563258338
0.14632941408951683,0.6584383938976586,0.8468475295544106,0.5910619373033952,0.10815602836879436,0.8036084612194111,0.6856067732831609,0.4181962891110779,0.2777165527881861,0.17157331294207606,0.08733341958856257,0.09377476983110786
0.1528505088429997,0.6614048098315499,0.8439678690512278,0.585963770474021,0.11300858529301981,0.8030900041476566,0.6922859830667921,0.42267323285081826,0.28007808810101076,0.1728477665201045,0.08927416224608618,0.09536003902201086
0.16055725718802488,0.6750715118126919,0.8478326765686572,0.5746827204685975,0.11431504292646512,0.8124222314392369,0.7111947318908748,0.4308312192210118,0.28558833716426846,0.17820047154782387,0.09539828352093847,0.10432290713980856
0.16144649738168165,0.6761309460747961,0.8479084571082147,0.5737064757565896,0.11468831653602093,0.8129406885109913,0.7208842897460018,0.43441277421280405,0.28794987247709314,0.1801440132543172,0.09746840902229699,0.1071885860618255
0.14425452030431776,0.6584383938976586,0.8484389208851169,0.592255125284738,0.10619634191862637,0.8046453753629199,0.7144873000940734,0.42874197880913295,0.28445480021411257,0.17635251385968267,0.0914736705912796,0.09761599902444973
0.1310147218654283,0.6567432990782921,0.8573810245528949,0.6002820262501356,0.09443822321761855,0.8100373289091662,0.7120413922859831,0.42341939014077506,0.28168393211373155,0.1742496654559358,0.08720403674472767,0.09048228766538627
0.1341764647762079,0.6785676448776352,0.870642618975447,0.5874823733593665,0.08781261664800301,0.8297386976358359,0.7174035747883348,0.42635427548127147,0.2843288516640953,0.17775441279551393,0.09164618104972615,0.09523809523809525
0.14889833020452525,0.7078080305117066,0.8801909669596848,0.5643779151751818,0.08883911907428146,0.850580671920365,0.7313264346190027,0.4366015022633438,0.2916023804275954,0.18501879819027592,0.10057359727433478,0.10596914822266935
0.1485031123406778,0.710562559593177,0.882464383146408,0.5631847271938388,0.0872527062336693,0.85348403152219,0.7390404515522107,0.4409789583644232,0.29437324852797636,0.1883005161536991,0.10419631690171217,0.11048106822754711
0.13526331390178836,0.6894798177773068,0.8774628675356169,0.5811910185486495,0.08407988055244495,0.8397967648278724,0.7327375352775164,0.4360045764313784,0.2905633048899525,0.18482763015357168,0.09932289645059733,0.10346930065239926
0.13140993972927575,0.6780379277465832,0.8723097908457109,0.589217919514047,0.08547965658827922,0.8305682289506429,0.722107243650047,0.4307317315823509,0.2872886425895022,0.18119543745619066,0.09436322077025922,0.09584781415767332
0.13763462108487304,0.6817459476639474,0.8701879357381025,0.5839028094153379,0.08967898469578203,0.8309829946080465,0.7228598306679209,0.4325722528975775,0.28873705091470137,0.18237430701586696,0.09600207012550137,0.09779891470032316
0.1513684418535718,0.6895857612035171,0.8652622006668689,0.5722963445059116,0.09919746173945504,0.8313977602654501,0.7324553151458137,0.4404317763517883,0.2939954028779244,0.18753584400688206,0.10264372277569328,0.10737150173769892
0.1520600731153048,0.6865134018434155,0.8625341012428008,0.5735980041219222,0.10125046659201196,0.8280796350062215,0.7386641580432737,0.44187434711237134,0.2943102742529677,0.1885554068693048,0.10402380644326563,0.10993232119992684
0.14385930244047032,0.671681322173959,0.8582146104880267,0.5856383555700184,0.10003732736095561,0.8178141849854832,0.729068673565381,0.43670098990200473,0.2906262791649611,0.1848594914930224,0.09867598223142279,0.10176208767758063
0.14119158185950004,0.6624642440936539,0.8537435586541376,0.591821238746068,0.10153042179917882,0.8103484031522191,0.7126058325493885,0.43003531811172463,0.2869737712144589,0.18113171477728926,0.0942338379264243,0.09542101091396867
0.15433257583242763,0.6731645301409047,0.851242800848742,0.5791300574899664,0.10927584919746176,0.8137702198257986,0.7048918156161805,0.4317763517882903,0.2899650492773702,0.18501879819027592,0.09923664122137406,0.10298152551673678
0.16865922339689754,0.6867252886958364,0.8499545316762656,0.5642694435405142,0.11674132138857785,0.8195769390294483,0.706961429915334,0.4366015022633438,0.2928303787902642,0.18900146562161474,0.10579203864234271,0.11328577525760626
0.16865922339689754,0.6805805699756329,0.8454834798423765,0.5674151209458727,0.11954087346024639,0.8134591455827457,0.7044214487300093,0.4360045764313784,0.2934916086778551,0.19033964187854457,0.10833656790442922,0.11670020120724346
0.15779073214109277,0.6626761309460747,0.8410882085480449,0.5826011497993275,0.11711459499813366,0.8017420157610949,0.6910630291627469,0.4271501765905587,0.2887055637771971,0.18635697444720578,0.10367878552637255,0.11115175903908299
0.15472779369627507,0.6581205636190274,0.8401788420733556,0.5866146002820263,0.11627472937663309,0.7988386561592701,0.6787394167450611,0.4204347609809481,0.2842658773890866,0.18234244567641625,0.09876223746064607,0.10535942930309128
0.1646082402924612,0.6745417946816399,0.8443467717490148,0.5728387026792494,0.11832773422919002,0.8097262546661137,0.6835371589840075,0.42108143063224396,0.28533644006423375,0.18329828585993754,0.1012205114935093,0.10822510822510824
0.172611402035372,0.6905392520394108,0.8496514095180357,0.5602559930578154,0.11879432624113478,0.8212360016590626,0.6948259642521166,0.4258568372879669,0.28927233225227494,0.18744025998852992,0.10695648423685689,0.11505396012438267
0.16628791621381286,0.6838648161881555,0.8496514095180357,0.56708970604187,0.11580813736468833,0.818021567814185,0.7016933207902164,0.4273491518678804,0.2888315123272143,0.1873765373096285,0.10695648423685689,0.11548076336808732
0.15354214010473274,0.6628880177984956,0.8444983328281298,0.5848790541273456,0.11300858529301981,0.8041269182911654,0.6952022577610536,0.4214296373675571,0.28338423753896536,0.18160963486904988,0.0995385345236555,0.10535942930309128
0.14395810690643218,0.6459370696048309,0.839724158836011,0.59876342336479,0.11142217245240764,0.7926171712982165,0.6887111947318909,0.414316271203303,0.2793853710759155,0.17616134582297838,0.09233622288351231,0.09773794280836536
0.14889833020452525,0.6479499947028285,0.8372991815701728,0.5949669161514265,0.11524822695035464,0.7918913313977602,0.6939793038570085,0.4152116599512511,0.2779369627507164,0.17504619894220355,0.09155992582050289,0.09828668983598562
0.15403616243454205,0.6576967899141858,0.8404061836920279,0.5872654300900315,0.11571481896229939,0.7988386561592701,0.7079021636876764,0.41924090931701735,0.27878711546333323,0.1776269674377111,0.09513951783326864,0.10298152551673678
0.14939235253433455,0.6520817883250344,0.8399515004546833,0.5926890118234082,0.11384845091452037,0.7957279137287433,0.7125117591721543,0.4194398845943392,0.27803142416322935,0.17663926591473905,0.09384568939491959,0.10249375038107433
0.13635016302736883,0.6431825405233604,0.8435889663534405,0.6042954767328343,0.10544979469951477,0.7939651596847782,0.6973659454374412,0.4107844600308412,0.2732138921250669,0.17138214490537185,0.08720403674472767,0.09334796658740321
0.1293350459440767,0.6438182010806229,0.8493482873598059,0.6078750406768629,0.09854423292273239,0.7982165076731647,0.6836312323612417,0.4023777545639954,0.27015963978714697,0.16813228828139934,0.0842282313365248,0.08804341198707397
0.13911668807430097,0.6614048098315499,0.854501364049712,0.5935567849007484,0.10003732736095561,0.810244711737868,0.6858889934148635,0.4040193006019003,0.27182845807487643,0.16994838463008985,0.08733341958856257,0.09255533199195172
0.15275170437703786,0.6838648161881555,0.8601091239769627,0.5745742488339299,0.10302351623740204,0.8251762754043965,0.7000940733772342,0.4125752375267373,0.27781101420069904,0.17546039635506278,0.09470824168715229,0.10255472227303214
0.15038039719395316,0.68767877953173,0.8646559563504093,0.5738149473912572,0.09910414333706609,0.8301534632932392,0.7086547507055503,0.4160573048798687,0.27998362668849774,0.17692601796979546,0.0971233881054039,0.10548137308700689
0.1367453808912163,0.6747536815340607,0.8658684449833283,0.5879162598980366,0.09191862635311686,0.8245541269182912,0.7017873941674505,0.4103367656568671,0.2760477345004566,0.17243356910724528,0.08996420407987235,0.09676239253704043
0.12656852089714454,0.6643712257654413,0.8661715671415581,0.5988718949994576,0.08697275102650244,0.8196806304437994,0.6973659454374412,0.404765457891857,0.27261563651248466,0.16867393105206144,0.08491827317031096,0.08962868117797695
0.1321015709910088,0.6726348130098527,0.8679145195513792,0.5916042954767328,0.08846584546472568,0.8249688925756947,0.705456255879586,0.4091926578122669,0.27516609465033537,0.17125469954756897,0.08716090913011602,0.09365282604719226
0.14326647564469913,0.6854539675813115,0.8685965444073962,0.5789131142206313,0.09331840238895113,0.8317088345085027,0.7191909689557855,0.4171019250858081,0.27992065241348907,0.17619320716242912,0.09337128563419159,0.1021279190293275
0.1428712577808517,0.684818307024049,0.868369202788724,0.579455472393969,0.09322508398656217,0.8312940688510991,0.7220131702728128,0.4183455205690694,0.2810227022261406,0.17730835404320397,0.09475136930176394,0.10359124443631486
0.13091591739946645,0.6718932090263798,0.8682934222491664,0.5926890118234082,0.08762597984322511,0.8248652011613439,0.7115710253998119,0.4125254937074069,0.27727573286312546,0.17326196393296375,0.0896623107775909,0.09517712334613743
0.12498764944175478,0.6652187731751243,0.8680660806304942,0.5993057815381279,0.08501306457633447,0.8214433844877644,0.7026340545625588,0.4062577724717704,0.27352876350011024,0.17017141400624483,0.08547893216026223,0.09005548442168161
0.13121233079735203,0.6710456616166965,0.8674598363140346,0.5929059550927434,0.08837252706233671,0.8238282870178351,0.7032925682031984,0.4079988061483361,0.2739380962876665,0.17144586758427324,0.08763531289084403,0.09304310712761418
0.13842505681256792,0.6776141540417417,0.8665504698393454,0.5856383555700184,0.09229189996267267,0.8264205723766072,0.7134524929444968,0.41416703974531166,0.27696086148808213,0.17450455617154145,0.09259498857118213,0.09938418389122615
0.13802983894872048,0.6751774552389024,0.8651864201273114,0.5870484868206964,0.09294512877939531,0.8243467440895894,0.7078080903104421,0.41312241953937223,0.2752605560628484,0.17415408143758362,0.09220684003967741,0.09901835253947931
0.1277541744886869,0.6566373556520817,0.8597302212791756,0.6022345156741512,0.09145203434117209,0.8115927001244297,0.6919096895578551,0.4045167387952047,0.27044302402468595,0.1695341872172306,0.08625522922327167,0.09267727577586733
0.12330797352040312,0.6397923508846275,0.8511670203091846,0.6131901507755723,0.09462486002239644,0.7974906677727084,0.6816556914393226,0.39984081977814256,0.2666015932491577,0.16478684763907475,0.081123043084487,0.0867020303640022
0.13891907914237722,0.6450895221951478,0.8430585025765384,0.6020175724048161,0.10703620754012694,0.7944836167565327,0.6857008466603951,0.4059593095557877,0.27015963978714697,0.16851462435480788,0.08660025014016476,0.09255533199195172
0.15729670981128346,0.6604513189956562,0.8398757199151258,0.5840112810500054,0.11767450541246736,0.799875570302779,0.6922859830667921,0.4140178082873203,0.2768034258005605,0.17447269483209077,0.09522577306249193,0.10322541308456802
0.16194051971149095,0.6582265070452378,0.8347226432252198,0.5826011497993275,0.12299365434863757,0.7952094566569888,0.6924741298212606,0.4181962891110779,0.2779369627507164,0.1761294844835277,0.09768404709535516,0.10761538930553016
0.15354214010473274,0.642017162835046,0.8295695665353138,0.5955092743247641,0.12215378872713702,0.7836997096640399,0.6825023518344309,0.41202805551410243,0.2750086589628137,0.1730389345568088,0.09384568939491959,0.10346930065239926
0.1477126766129829,0.633329801885793,0.8278266141254926,0.6031022887514915,0.12056737588652484,0.7783077561177936,0.6761994355597366,0.4086952196189623,0.27198589376239807,0.17004396864844198,0.08948980031914436,0.09816474605207
0.15354214010473274,0.6406398982943108,0.8286602000606245,0.5962685757674369,0.12271369914147072,0.7824554126918292,0.6860771401693321,0.4138188330099985,0.2742529676627098,0.17243356910724528,0.09237935049812396,0.09993293091884642
0.16016203932417747,0.6517639580464031,0.8314640800242498,0.5868315435513614,0.12411347517730499,0.7898175031107425,0.7047036688617121,0.42162861264487894,0.27897603828835926,0.17749952207990824,0.09764091948074353,0.10645692335833183
0.15571583835589367,0.653035279160928,0.835783570779024,0.5886755613407094,0.11935423665546847,0.7933430111986728,0.7139228598306679,0.42262348903148783,0.2801410623760194,0.17807302619002102,0.09811532324147153,0.10657886714224743
0.14316767117873727,0.6429706536709396,0.8382085480448621,0.6007159127888057,0.11198208286674133,0.7901285773537952,0.7064910630291628,0.4167039745311645,0.2775906042381687,0.17517364430000637,0.09440634838487086,0.10090848119017133
0.13812864341468234,0.6316347070664264,0.8339648378296455,0.6092851719275411,0.11216871967151924,0.7817295727913729,0.702351834430856,0.41396806446798984,0.2768034258005605,0.173453131969668,0.09177556389356105,0.09676239253704043
0.14306886671277544,0.6344951795741073,0.8322218854198241,0.6051632498101747,0.11562150055991044,0.7818332642057237,0.7108184383819379,0.41889270258170425,0.2785667055008029,0.17510992162110495,0.09341441324880323,0.09920126821535273
0.15265289991107597,0.6444538616378853,0.8319945438011518,0.5947499728820913,0.12028742067935799,0.7866030692658649,0.7237064910630291,0.4273491518678804,0.28310085330142637,0.18023959727266936,0.0994091516798206,0.10651789525028962
0.15047920165991505,0.639368577179786,0.829948469233101,0.5985464800954551,0.1204740574841359,0.782662795520531,0.7261523988711195,0.42739889568721084,0.28395100601404333,0.17998470655706367,0.09962478975287879,0.10700567038595209
0.13644896749333071,0.623900836953067,0.8297211276144287,0.61416639548758,0.11403508771929827,0.7749896308585649,0.7145813734713076,0.4191911654976869,0.27875562832582895,0.1746001401898936,0.09272437141501706,0.09853057740381685
0.1310147218654283,0.6147897022989722,0.827371930888148,0.6217594099143073,0.11291526689063085,0.7688718374118623,0.7038570084666039,0.4143660150226335,0.2758273245379263,0.17201937169438603,0.08849786518307674,0.09310407901957199
0.1428712577808517,0.6279266871490623,0.8275992725068203,0.6086343421195357,0.11832773422919002,0.7755080879303193,0.7097836312323612,0.41939014077500875,0.27859819263830726,0.17536481233671064,0.09263811618579378,0.09926224010731054
0.1523564865131904,0.6430765970971501,0.831312518945135,0.5956177459594315,0.12056737588652484,0.785462463708005,0.7239887111947318,0.42754812714520224,0.2836991089140086,0.17988912253871153,0.09915038599215079,0.1071885860618255
0.14731745874913546,0.6397923508846275,0.8328281297362837,0.6000650829808006,0.1172079134005226,0.7849440066362505,0.72483537158984,0.42774710242252395,0.283730596051513,0.17969795450200726,0.09996981066977187,0.10670081092616304
0.13427526924216976,0.628350460853904,0.834571082146105,0.6130816791409046,0.11002239641657337,0.7804852758191623,0.7072436500470367,0.4173506441824603,0.27746465568815143,0.17475944688714715,0.0937594341656963,0.09877446497164807
0.12953265487600038,0.6309990465091639,0.8400272809942408,0.6142748671222475,0.10442329227323631,0.785462463708005,0.6922859830667921,0.40964035218624084,0.27293050788752793,0.17106353151086473,0.08961918316297927,0.09365282604719226
0.14010473273391957,0.6476321644241975,0.8438163079721127,0.599956611346133,0.10712952594251587,0.7962463708004978,0.7002822201317027,0.41237626224941554,0.2749771718253094,0.17300707321735806,0.09337128563419159,0.09779891470032316
0.1492935480683727,0.660133488717025,0.8457108214610488,0.5885670897060419,0.11030235162374022,0.8036084612194111,0.7133584195672624,0.4197383475103218,0.27944834535092417,0.17746766074045753,0.09906413076292753,0.10596914822266935
0.14455093370220334,0.6545184871278735,0.845407699302819,0.5939906714394186,0.10815602836879436,0.800705101617586,0.7121354656632173,0.41814654529174755,0.2782203469882553,0.17654368189638694,0.09794281278302497,0.10523748551917567
0.1330896156506274,0.6411696154253628,0.8446498939072447,0.6071157392341903,0.10330347144456888,0.7936540854417253,0.6986829727187206,0.407650599413023,0.2717339966623634,0.17026699802459697,0.09035235261137707,0.09523809523809525
0.12627210749925896,0.6353427269837907,0.8457108214610488,0.6138409805835774,0.09938409854423294,0.7915802571547076,0.6920978363123236,0.4023777545639954,0.26908907711199975,0.16774995220799083,0.08552205977487387,0.08859215901469422
0.1336824424463986,0.6443479182116749,0.8464686268566232,0.6052717214448422,0.10246360582306833,0.7964537536291996,0.6990592662276576,0.4089439387156146,0.2723007651374414,0.17147772892372395,0.0901367145383189,0.09292116334369857
0.1485031123406778,0.6619345269626019,0.8476811154895423,0.5881332031673717,0.1086226203807391,0.8058896723351306,0.7074317968015051,0.414763965577277,0.27696086148808213,0.17628879118078125,0.09720964333462719,0.10292055362477899
0.14939235253433455,0.66670198114207,0.8504092149136102,0.5850959973966807,0.10740948114968273,0.8101410203235173,0.7074317968015051,0.4144157588419639,0.2775906042381687,0.17714904734595044,0.09846034415836462,0.10505456984330225
0.13684418535717816,0.653035279160928,0.8502576538344954,0.5989803666341252,0.10162374020156777,0.8032973869763584,0.6949200376293508,0.40809829378699697,0.2739066091501622,0.17329382527241444,0.09281062664424032,0.096579476861167
0.13121233079735203,0.6436063142282021,0.8478326765686572,0.6070072675995227,0.1004106009705114,0.7970759021153048,0.6886171213546566,0.406108541013779,0.27248968796246736,0.17109539285031544,0.0896623107775909,0.09255533199195172
0.14494615156605078,0.6556838648161881,0.8459381630797211,0.5932313699967459,0.10806270996640539,0.8016383243467441,0.6961429915333961,0.4140178082873203,0.2767404515255518,0.17581087108902058,0.09608832535472465,0.10084750929821354
0.16302736883707145,0.6629939612247059,0.8372991815701728,0.5795639440286365,0.12187383351997017,0.7992534218166736,0.709689557855127,0.4236183654180968,0.2829749047514091,0.18186452558465557,0.10497261396472163,0.11322480336564845
0.1623357375753384,0.6501748066532471,0.828584419521067,0.5865061286473587,0.12700634565136248,0.7871215263376193,0.7098777046095954,0.42525991145600167,0.2845177744891212,0.18320270184158544,0.10786216414370123,0.11724894823486373
0.1492935480683727,0.6302574425256912,0.8243407093058502,0.6038615901941642,0.12346024636058232,0.7743674823724597,0.6986829727187206,0.4195393722330001,0.281054189363645,0.17851908494233099,0.1012205114935093,0.10926163038839096
0.14563778282778383,0.6214641381502277,0.8209305850257653,0.6103698882742163,0.12374020156774918,0.7677312318540026,0.6969896519285042,0.4173506441824603,0.27897603828835926,0.17657554323583766,0.09785655755380171,0.10407901957197734
0.156209860685703,0.628350460853904,0.8176720218247955,0.6010413276928084,0.1307390817469205,0.7689755288262132,0.7066792097836312,0.42416554743073176,0.28363613463899995,0.1810679920983878,0.10298874369258638,0.11109078714712518
0.1649046536903468,0.6403220680156796,0.8196423158532888,0.5901941642260549,0.13363195222097798,0.7761302364164248,0.7176857949200376,0.43217430234293386,0.2889259737397274,0.18571974765819158,0.10911286496743866,0.11889518931772453
0.1634225867009189,0.6342832927216865,0.8164595331918763,0.5939906714394186,0.13493840985442332,0.7710493571132311,0.7140169332079022,0.4307814754016814,0.28782392392707584,0.18546485694258588,0.1085522059774874,0.11840741418206209
0.1489971346704871,0.6165907405445492,0.81486814186117,0.6110207180822215,0.12915266890630836,0.7611986727498964,0.6983066792097836,0.42008655424563496,0.280959727951132,0.17861466896068312,0.09992668305516023,0.10700567038595209
0.14119158185950004,0.6105519652505562,0.8165353137314338,0.6183967892396138,0.12439343038447184,0.7594359187059312,0.6853245531514581,0.41083420385017155,0.2751975817878397,0.1727840438412031,0.09289688187346358,0.09865252118773246
0.14682343641932616,0.6231592329695942,0.8212337071839951,0.6088512853888708,0.12411347517730499,0.7688718374118623,0.6922859830667921,0.4131721633587027,0.27611070877546523,0.17367616134582298,0.0936300513218614,0.10200597524541187
0.15245529097915225,0.6323763110498993,0.8235071233707184,0.6010413276928084,0.12541993281075028,0.7748859394442141,0.7077140169332079,0.4195891160523305,0.2791334739758809,0.17756324475880966,0.096994005261569,0.10749344552161455
0.14227843098508053,0.6192393261998091,0.8219157320400121,0.6134070940449073,0.1215938783128033,0.767316466196599,0.7142991533396048,0.42063373625826994,0.2792594225258982,0.1767348499330912,0.096519601500841,0.10517651362721786
0.12854461021638178,0.6069498887594024,0.8236586844498334,0.6271829916476841,0.11403508771929827,0.7625466611364579,0.7079962370649105,0.41645525543451234,0.2763626058754999,0.17262473714394952,0.09155992582050289,0.0973721114566185
0.12449362711194546,0.6108697955291874,0.8295695665353138,0.6273999349170192,0.10843598357596121,0.7684570717544589,0.7061147695202258,0.4126249813460678,0.2739380962876665,0.1706811954374562,0.08858412041230002,0.09127492226083776
0.13427526924216976,0.6263375357559063,0.8331312518945135,0.61416639548758,0.11086226203807394,0.7785151389464954,0.7119473189087487,0.4152116599512511,0.27598476022544793,0.1737717453641751,0.09181869150817269,0.09627461740137798
0.1451437604979745,0.6357665006886322,0.8315398605638072,0.6033192320208265,0.1170212765957447,0.7820406470344256,0.720978363123236,0.4197383475103218,0.27853521836329864,0.17635251385968267,0.09686462241773408,0.10401804768001952
0.14247603991700425,0.6262315923296958,0.8267656865716884,0.6096105868315436,0.11870100783874582,0.7740564081294068,0.7202257761053622,0.41829577674973883,0.2771182971756038,0.1749506149238514,0.09626083581317117,0.10328638497652583
0.1266673253631064,0.6064201716283504,0.8247196120036375,0.6284846512636946,0.1124486748786861,0.7630651182082123,0.7082784571966133,0.4093418892702582,0.27034856261217294,0.1675906455107373,0.0884547375684651,0.09359185415523444
0.12073905740539473,0.59847441466257,0.8235829039102758,0.6358607224210869,0.11039567002612918,0.7582953131480714,0.6994355597365944,0.4024772422026564,0.26509021064894994,0.16293888995093353,0.08233061629361281,0.0874946649594537
0.12953265487600038,0.6081152664477169,0.8236586844498334,0.6259898036663413,0.11450167973124302,0.7631688096225633,0.7003762935089369,0.40456648261453515,0.2663496961491231,0.16520104505193398,0.08474576271186442,0.09218950064020487
0.14089516846161446,0.6248543277889607,0.8269930281903607,0.6112376613515565,0.11786114221724527,0.7735379510576524,0.7011288805268109,0.41048599711485845,0.2717339966623634,0.1704263047218505,0.09212058481045415,0.10194500335345405
0.14247603991700425,0.6290920648373768,0.8288117611397393,0.6082004555808657,0.11739455020530051,0.776856076316881,0.7004703668861713,0.4105854847535194,0.27293050788752793,0.1716370356209775,0.09332815801957994,0.10328638497652583
0.13536211836775022,0.6269731963131686,0.8326765686571689,0.6131901507755723,0.11170212765957448,0.7785151389464954,0.6881467544684854,0.4015321096353778,0.26971881986208635,0.16810042694194863,0.08828222711001855,0.09639656118529358
0.1313111352633139,0.6372497086555778,0.8432100636556532,0.6101529450048813,0.10330347144456888,0.7907507258399006,0.6820319849482597,0.3990449186688554,0.26902610283699113,0.16810042694194863,0.08685901582783458,0.09267727577586733
0.139808319336034,0.6581205636190274,0.8516217035465292,0.5948584445167588,0.10218365061590148,0.8067192036499379,0.6933207902163687,0.4069541859423967,0.2741270191126925,0.17329382527241444,0.09306939233191014,0.0988354368636059
0.14791028554490665,0.6756012289437441,0.8579114883297969,0.5814079618179846,0.10209033221351252,0.8195769390294483,0.706961429915334,0.4152116599512511,0.28007808810101076,0.1794430637864016,0.10130676672273259,0.10822510822510824
0.14445212923624148,0.6757071723699544,0.8606395877538647,0.5832519796073327,0.09882418812989924,0.8215470759021153,0.7055503292568203,0.41590807342187736,0.28121162505116665,0.1810361307589371,0.10333376460947946,0.11029815255167369
0.13832625234660606,0.6647949994702828,0.8575325856320097,0.5921466536500706,0.09779768570362077,0.8140812940688511,0.6939793038570085,0.410983435308163,0.27847224408828997,0.17737207672210542,0.09854659938758788,0.10395707578806171
0.13872147021045353,0.6605572624218665,0.8541224613519248,0.5940991430740861,0.10013064576334454,0.8096225632517629,0.6896519285042333,0.4119783116947719,0.2778425013382034,0.17660740457528834,0.09729589856385044,0.10279860984086336
0.1489971346704871,0.6658544337323868,0.8501060927553804,0.5858552988393535,0.10740948114968273,0.809415180423061,0.7040451552210725,0.4196886036909914,0.2819988034887748,0.18090868540113428,0.10255746754647002,0.10944454606426439
0.16144649738168165,0.6754952855175336,0.8474537738708701,0.5740318906605922,0.11496827174318779,0.8124222314392369,0.722107243650047,0.42938864846042885,0.28851664095217106,0.18638883578665646,0.1107085867080692,0.11980976769709166
0.16194051971149095,0.6673376416993325,0.8413155501667173,0.5779368695086234,0.11888764464352372,0.8042306097055165,0.72483537158984,0.43282097199422975,0.29050033061494385,0.18814120945644555,0.11247681890714625,0.12218767148344614
0.14652702302144058,0.6347070664265281,0.8296453470748711,0.6031022887514915,0.11879432624113478,0.7801742015761095,0.7166509877704609,0.42635427548127147,0.28646997701438964,0.18336200853883897,0.10462759304782854,0.11249314066215475
0.14198201758719495,0.6215700815764382,0.8238102455289481,0.612322377698232,0.12028742067935799,0.7698050601410203,0.7101599247412982,0.4232701586827836,0.28407695456406057,0.18001656789651438,0.10005606589899513,0.10548137308700689
0.15008398379606758,0.6296217819684288,0.8233555622916036,0.6037531185594966,0.12439343038447184,0.7734342596433016,0.7164628410159924,0.4281450529771676,0.28628105418936367,0.18278850442872618,0.10441195497477036,0.11188342174257668
0.15917399466455884,0.6411696154253628,0.82464383146408,0.5927974834580757,0.12784621127286303,0.7799668187474078,0.7278457196613358,0.4350594438640999,0.2899335621398659,0.1861020837316001,0.11019105533272956,0.11895616120968235
0.15581464282185556,0.6336476321644241,0.8218399515004547,0.5985464800954551,0.12803284807764093,0.7743674823724597,0.7241768579492003,0.4333184101875342,0.28949274221480525,0.18454087809851527,0.10816405744598268,0.11621242607158101
0.1393142970062247,0.6088568704311897,0.8167626553501061,0.6202408070289619,0.12336692795819339,0.7588137702198258,0.7099717779868296,0.4237178530567577,0.28269152051387014,0.17746766074045753,0.09910725837753914,0.1055423449789647
0.13071830846754273,0.59847441466257,0.8160048499545317,0.6303286690530426,0.11972751026502429,0.7532144338448776,0.7033866415804327,0.4187434711237129,0.277999937025725,0.1725291531255974,0.09194807435200761,0.0973721114566185
0.13970951487007213,0.6106579086767665,0.8178235829039103,0.6191560906822865,0.12290033594624862,0.7603691414350892,0.7105362182502352,0.4220265631995225,0.28029849806354107,0.17456827885044288,0.09457885884331738,0.10145722821779161
0.14613180515759314,0.6255959317724334,0.8235071233707184,0.6079835123115305,0.12243374393430387,0.7715678141849854,0.7247412982126058,0.4271501765905587,0.28436033880159955,0.17925189574969733,0.10191055332729547,0.11060301201146273
0.13832625234660606,0.6188155524949677,0.82464383146408,0.6156849983729255,0.11804777902202317,0.7690792202405641,0.7265286923800564,0.4264040193006019,0.2833212632639567,0.17832791690562672,0.10100487342045113,0.10871288336077069
0.12479004050983104,0.6049369636614047,0.8250985147014247,0.6303286690530426,0.11132885405001869,0.7625466611364579,0.7154280338664157,0.4173506441824603,0.27806291130073363,0.1733575479513159,0.09380256178030795,0.09895738064752149
0.11975101274577611,0.6051488505138255,0.8291148832979691,0.6329319882850635,0.10656961552818218,0.765346329323932,0.7114769520225775,0.413769089190668,0.27516609465033537,0.17119097686866755,0.08940354508992109,0.09371379793915006
0.13012548167177157,0.6182858353639155,0.8305547135495606,0.6205662219329646,0.11058230683090708,0.7728121111571962,0.7194731890874883,0.41645525543451234,0.2759532730879436,0.17214681705218887,0.0914736705912796,0.09676239253704043
0.1377334255508349,0.6217819684288588,0.827220369809033,0.6144918103915826,0.11618141097424414,0.7722936540854417,0.7266227657572907,0.4192906531363478,0.27655152870052585,0.1733575479513159,0.09449260361409412,0.10170111578562284
0.1330896156506274,0.6142599851679201,0.8254016368596544,0.6208916368369671,0.11515490854796569,0.767316466196599,0.7195672624647225,0.41645525543451234,0.2744418904877358,0.17157331294207606,0.09401819985336611,0.1006036217303823
0.12222112439482265,0.6009111134654094,0.8242649287662929,0.6336912897277363,0.11067562523329602,0.7599543757776857,0.7032925682031984,0.40794906232900563,0.2704115368871816,0.16787739756579367,0.08888601371458146,0.09420157307481251
0.12459243157790732,0.6049369636614047,0.8252500757805397,0.6303286690530426,0.11123553564762972,0.7626503525508088,0.6881467544684854,0.4025269860219868,0.2683648729494002,0.16602943987765245,0.0867727605986113,0.09097006280104873
0.14178440865527123,0.629409895116008,0.8295695665353138,0.6084173988502006,0.1166480029861889,0.7775819162173373,0.6848541862652869,0.40551161518181367,0.2721118423124154,0.1704263047218505,0.09246560572734723,0.0988354368636059
0.15275170437703786,0.6443479182116749,0.8319187632615944,0.5947499728820913,0.12038073908174693,0.7864993778515139,0.6903104421448729,0.4113316420434761,0.2768034258005605,0.17597017778627416,0.09958166213826715,0.10968843363209561
0.15126963738760993,0.6386269731963131,0.8288875416792968,0.5985464800954551,0.12150055991041435,0.7816258813770219,0.6915333960489181,0.4108839476695021,0.2766459901130388,0.17625692984133054,0.09945227929443225,0.11078592768733615
0.13970951487007213,0.6276088568704311,0.8298726886935435,0.6104783599088838,0.11552818215752148,0.776856076316881,0.6810912511759172,0.4045167387952047,0.27248968796246736,0.17214681705218887,0.09337128563419159,0.10267666605694777
0.1395119059381484,0.6297277253946392,0.8316156411033648,0.609502115196876,0.11431504292646512,0.7791372874326006,0.676387582314205,0.4026264736606477,0.2718914323498851,0.17084050213470975,0.09168930866433779,0.09962807145905739
0.14702104535124988,0.6454073524737789,0.836996059411943,0.5973532921141121,0.11459499813363197,0.7905433430111988,0.68758231420508,0.409988558921554,0.27696086148808213,0.17542853501561206,0.09772717470996681,0.10590817633071155
0.15393735796858019,0.6625701875198642,0.8439678690512278,0.5847705824926782,0.11356849570735351,0.8036084612194111,0.7017873941674505,0.4177983385564344,0.2829749047514091,0.18141846683234564,0.10501574157933326,0.1152368758002561
0.14998517933010572,0.6626761309460747,0.8470748711730828,0.5868315435513614,0.10974244120940652,0.8058896723351306,0.703480714957667,0.4169029498084863,0.2835101860889827,0.18173708022685275,0.10574891102773107,0.11560270715200294
0.14040114613180515,0.6517639580464031,0.8466201879357381,0.5976787070181147,0.10544979469951477,0.8001866445458317,0.6952022577610536,0.4126249813460678,0.28017254951352377,0.1780411648505703,0.10018544874283006,0.10932260228034876
0.14198201758719495,0.6513401843415616,0.8450287966050319,0.5971363488447771,0.10722284434490484,0.7988386561592701,0.6903104421448729,0.41138138586280654,0.27897603828835926,0.17667112725418976,0.09811532324147153,0.10560331687092252
0.1536409445706946,0.6649009428964933,0.8458623825401638,0.5837943377806704,0.11216871967151924,0.8060970551638325,0.705832549388523,0.4203352733422872,0.2848326458641645,0.18215127763971198,0.10523137965239145,0.11426132552893117
0.16273095543918586,0.6774022671893208,0.8478326765686572,0.5722963445059116,0.11524822695035464,0.8135628369970967,0.7242709313264346,0.43197532706561215,0.29198022607764734,0.18932007901612183,0.11346875404321388,0.12298030607889765
0.15709910087935974,0.6712575484691173,0.8477568960290996,0.5785876993166288,0.11272863008585296,0.8105557859809207,0.7250235183443086,0.43446251803213454,0.2926099688277339,0.18973427642898108,0.11282183982403934,0.12206572769953052
0.14662582748740244,0.6556838648161881,0.8446498939072447,0.5923635969194055,0.10964912280701757,0.8008087930319371,0.7102539981185324,0.42570760582997563,0.2873831040020152,0.18278850442872618,0.10492948635010999,0.11237119687823914
0.14435332477027962,0.6456192393261998,0.8391936950591089,0.59876342336479,0.11188876446435239,0.792098714226462,0.70620884289746,0.42108143063224396,0.283825057464026,0.17848722360288025,0.10005606589899513,0.10743247362965674
0.15532062049204626,0.6471024472931455,0.8319187632615944,0.5919297103807355,0.1215938783128033,0.7878473662380756,0.7173095014111006,0.42600606874595837,0.286218079914355,0.18081310138278214,0.10320438176564455,0.11090787147125175
0.16263215097322398,0.6511282974891408,0.8291148832979691,0.5858552988393535,0.12681970884658456,0.7879510576524263,0.7280338664158044,0.4324727652589166,0.2901224849648919,0.1843815714012617,0.10725837753913832,0.11639534174745443
0.15591344728781742,0.6423349931136773,0.8279781752046075,0.5939906714394186,0.12430011198208289,0.7827664869348818,0.722483537158984,0.4303835248470378,0.28927233225227494,0.18383992863059964,0.10600767671540087,0.11401743796109995
0.1425748443829661,0.6265494226083271,0.8269930281903607,0.6093936435622085,0.11860768943635687,0.7743674823724597,0.7102539981185324,0.42366810923742726,0.2846122359016342,0.17902886637354234,0.0994091516798206,0.10603012011462717
0.13694298982314002,0.6255959317724334,0.8305547135495606,0.6130816791409046,0.11375513251213142,0.7763376192451266,0.7046095954844779,0.41914142167835644,0.280959727951132,0.17520550563945708,0.09535515590632683,0.10066459362234012
0.14119158185950004,0.635978387541053,0.8347226432252198,0.6053801930795097,0.1131952220977977,0.7843218581501451,0.7144873000940734,0.42272297667014874,0.2817154192512359,0.17692601796979546,0.09764091948074353,0.10279860984086336
0.14395810690643218,0.6408517851467316,0.8360866929372538,0.601366742596811,0.11366181410974245,0.7876399834093738,0.7266227657572907,0.4272496642292195,0.28436033880159955,0.1798253998598101,0.10091861819122785,0.10633497957441619
