Lead I,Lead II,Lead III,aVR,aVL,aVF,V1,V2,V3,V4,V5,V6
0.1606560616539867,0.5019599533848923,0.72393149439224,0.6633040459919731,0.1906494960806271,0.6428867689755289,0.7880526810912513,0.4962940854598816,0.3571586007116093,0.2475626075320206,0.1851468495277526,0.1578562282787635
0.1680663966011263,0.5063036338595189,0.721354956047287,0.6570126911812562,0.1956886898096305,0.6433015346329324,0.7901222953904045,0.4981843505944386,0.3590793160993734,0.2493468425412604,0.1873032302583344,0.160843850984696
0.1821954352336725,0.5176395804640321,0.7186268566232192,0.6434537368478143,0.2039940276222471,0.6470344255495645,0.8043273753527751,0.5053474605780232,0.3639283352750401,0.2546995475689798,0.1944192866692543,0.1700506066703249
0.1856535915423377,0.5170039199067697,0.715519854501364,0.6418266623278014,0.2075401269130272,0.6445458316051431,0.8060206961429914,0.5070884942545889,0.3657860763877956,0.2561014465048111,0.1969206883167292,0.1740137796475825
0.1774528208675032,0.5020658968111028,0.7111245832070324,0.6539754854105652,0.2064203060843598,0.6342803815844048,0.7910630291627468,0.496891011291847,0.3586070090368085,0.2495698719174154,0.1894596109889162,0.1661484055850253
0.1644106313605375,0.4876575908464878,0.7108214610488026,0.6685106844560148,0.200447928331467,0.6270219825798424,0.7774223894637817,0.4874894294383923,0.351396454548317,0.2435162174217804,0.1812653642127054,0.1556612401682824
0.1660903072818891,0.4868100434368047,0.7089269475598667,0.6680767979173445,0.2024076147816349,0.6252592285358773,0.7768579492003762,0.4860468586778093,0.3505463018357001,0.2430382973300197,0.1797558977012981,0.1549295774647887
0.1783420610611599,0.4939082529929017,0.7046074568050925,0.6577719926239288,0.2108062709966405,0.6257776856076317,0.7888993414863592,0.4922150922747848,0.3538524512736548,0.2460651245778372,0.1838530210894035,0.1613925980123163
0.1800217369825116,0.4933785358618496,0.7028645043952714,0.6570126911812562,0.2127659574468085,0.6243260058067193,0.7999999999999999,0.4951002337959508,0.3553323467363582,0.2478812209265277,0.1856643809030922,0.164014389366502
0.166189111747851,0.4804534378641805,0.7043043346468627,0.6713309469573707,0.2053004852556924,0.6189340522604729,0.7912511759172154,0.4876386608963836,0.351301993135804,0.2441534442107946,0.1801440462328028,0.1577952563868057
0.1530481177749234,0.4690115478334569,0.7062746286753562,0.6843475431174748,0.1979283314669652,0.6146827042720863,0.7816556914393227,0.4789832363328857,0.3457602569350421,0.2385777098069203,0.1734161383533876,0.1476129504298518
0.1538385535026183,0.4756859836847122,0.7103667778114581,0.6804425642694435,0.1956886898096305,0.6208004977187889,0.7845719661335842,0.4792319554295379,0.3454453855599987,0.2378448989995539,0.1734161383533876,0.1470032315102737
0.1617429107795672,0.4925309884521665,0.716353440436496,0.667534439744007,0.1957820082120194,0.633139776026545,0.7975540921919096,0.484355568820574,0.348625586447936,0.2418275664308927,0.1785483244921723,0.1549905493567465
0.1653986760201561,0.4985697637461595,0.7178690512276448,0.6624362729146328,0.196528555431131,0.6371837411862298,0.80620884289746,0.4867432721484356,0.3502629175981612,0.2441853055502453,0.1824298098072195,0.1609048228766538
0.1585811678687876,0.4894586290920649,0.7166565625947258,0.670788588784033,0.1941022769690183,0.6317917876399833,0.7978363123236124,0.4830124856986519,0.3472716395352498,0.241572675715287,0.1792383663259585,0.1569416498993963
0.1484043078747159,0.4854327788960693,0.7215822976659594,0.678490074845428,0.1862635311683464,0.6332434674408959,0.7873000940733772,0.4760483509923892,0.3437450801347649,0.2380360670362582,0.1745805839479018,0.1500518261081641
0.1508744195237624,0.4964508952219513,0.7274931797514399,0.6715478902267058,0.1838372527062337,0.6426793861468271,0.7873000940733772,0.4755011689797542,0.3446267199848862,0.2390237685592302,0.1750549877086298,0.1500518261081641
0.1659915028159272,0.5121305223010911,0.7271142770536526,0.6551686733919081,0.1911160880925718,0.6500414765657404,0.7939793038570084,0.4814704272994081,0.3472401523977456,0.2428471292933155,0.1802734290766378,0.1579172001707213
0.1656950894180416,0.5134018434156159,0.7282509851470144,0.6547347868532378,0.1902762224710713,0.651493156366653,0.7907808090310442,0.4794806745261901,0.3461695897225983,0.2433887720639775,0.1820847888903264,0.1611487104444851
0.1600632348582155,0.507363068121623,0.7282509851470144,0.6609176700292873,0.1876633072041806,0.648486105350477,0.7611476952022577,0.4715714072526489,0.3423281589470701,0.2401389154400051,0.1788502177944538,0.1574294250350588
0.1579883410730164,0.5053501430236254,0.7284025462261291,0.6629786310879704,0.1865434863755133,0.6476565740356699,0.7393226716839134,0.4650549669203601,0.3391479580591329,0.2375262856050468,0.1751412429378531,0.1530394488140967
0.1614464973816816,0.5091641063671998,0.7284783267656866,0.6591821238746068,0.1881298992161254,0.6496267109083368,0.7397930385700846,0.4667960005969258,0.3403444692842974,0.2395016886509909,0.1775563893561047,0.1558441558441558
0.1767611896057702,0.5158385422184553,0.721506517126402,0.6473587156958455,0.1997013811123554,0.6480713396930735,0.7507055503292567,0.4745062925931453,0.3447526685349035,0.2443446122474989,0.1842411696209082,0.1643802207182489
0.1823930441655963,0.5176395804640321,0.7184752955441043,0.6433452652131467,0.2042739828294139,0.6468270427208628,0.755032925682032,0.4797791374421729,0.3480903051103624,0.2470209647613585,0.1879501444775089,0.1691970001829157
0.1763659717419227,0.5135077868418265,0.7202182479539255,0.6487688469465235,0.200354609929078,0.6459975114060555,0.7457196613358419,0.474804755509128,0.3456657955225291,0.2436436627795832,0.1846724457670246,0.164989939637827
0.1696472680565161,0.5108592011865662,0.7234010306153379,0.65375854214123,0.1952220977976857,0.6469307341352136,0.7335841956726247,0.4671939511515694,0.3411631348594099,0.2399796087427515,0.1806184499935308,0.1582220596305103
0.1752791226163422,0.5191227884309778,0.7249924219460442,0.6464909426185053,0.1968085106382979,0.6520116134384073,0.735653809971778,0.469034472466796,0.3430523631096697,0.2414133690180335,0.1820416612757148,0.1606609353088226
0.1880248987254223,0.5247377900201293,0.7191573204001213,0.6366200238637596,0.2065136244867488,0.6507673164661967,0.750423330197554,0.4777396408496244,0.3483736893479014,0.2465430446695979,0.1878638892482857,0.1686482531552954
0.1856535915423377,0.5172158067591904,0.7156714155804789,0.6418266623278014,0.2074468085106383,0.6447532144338448,0.7611476952022577,0.4806247823707905,0.3509556346232564,0.2484228636971898,0.1904084185103722,0.1713310164014389
0.1740934690247999,0.4966627820743721,0.7098363140345559,0.658639765701269,0.2055804404628592,0.6306511820821237,0.7511759172154281,0.4747052678704671,0.3455398469725118,0.243006435990569,0.1835511277871221,0.1613316261203585
0.1652998715541942,0.481406928700074,0.7056683843588968,0.6713309469573707,0.204087346024636,0.6203857320613854,0.7386641580432737,0.4650052231010297,0.3386756509965679,0.2359013572930605,0.1754862638547462,0.1519419547588561
0.1673747653393933,0.4779107956351307,0.7015762352227948,0.6719817767653758,0.2075401269130272,0.615927001244297,0.7423330197554092,0.4642093219917425,0.3364085770962562,0.2341171222838208,0.1741493078017854,0.152307786110603
0.1780456476632743,0.4834198537980717,0.6973325250075781,0.6631955743573056,0.2151922359089212,0.6157196184155953,0.7542803386641581,0.4693329353827787,0.3382348310715073,0.2362199706875677,0.1773407512830465,0.1577342844948479
0.1774528208675032,0.4826782498145989,0.6972567444680207,0.6639548757999783,0.2150055991041433,0.6153048527581917,0.7609595484477893,0.4715714072526489,0.3389905223716112,0.237175810871089,0.1778582826583861,0.1591976099018352
0.1653986760201561,0.4689056044072464,0.6967262806911186,0.6776223017680877,0.2095931317655842,0.6081501451679802,0.7549388523047977,0.4666965129582649,0.3359047828961869,0.2336392021920601,0.1727260965196015,0.1509664044875312
0.1561110562197411,0.4601123000317829,0.6975598666262504,0.6872762772534982,0.2047405748413587,0.604417254251348,0.7457196613358419,0.4605282793612894,0.3315595579205894,0.2292741986873128,0.1670763790054772,0.1434058898847631
0.1593716035964825,0.46985909524314,0.7019551379205821,0.6804425642694435,0.2035274356103023,0.6121941103276648,0.7573847601128881,0.4653036860170124,0.3338896060959098,0.2318231058433696,0.1698796739552335,0.1460276812389488
0.1685604189309356,0.4844792880601758,0.705365262200667,0.6678598546480095,0.2057670772676372,0.6217337204479468,0.7746942615239886,0.4745560364124757,0.3393683680216632,0.2364748614031734,0.1758744123862509,0.1533443082738857
0.1667819385436222,0.4873397605678567,0.7086996059411943,0.6674259681093394,0.2028742067935797,0.6253629199502281,0.7824082784571965,0.4759986071730587,0.3413520576844359,0.2381316510546103,0.1781601759606676,0.1568197061154807
0.1529493133089615,0.4783345693399723,0.712943316156411,0.6795747911921033,0.1937290033594625,0.6239112401493156,0.7759172154280338,0.4706262746853704,0.3374476526338991,0.2347224877333843,0.1733298831241644,0.1498079385403329
0.1425748443829661,0.4716601334887169,0.7161260988178236,0.6887948801388437,0.1868234415826801,0.6227706345914559,0.7657572906867356,0.4626175197731682,0.3327875562832583,0.2300388708341298,0.1676801656100401,0.1420035363697335
0.1471198498172117,0.485856552600911,0.7227947862988785,0.678923961384098,0.1849570735349011,0.6342803815844048,0.7690498588899342,0.4633636770631249,0.3333543247583362,0.2309628496782004,0.1688446112045543,0.1452960185354551
0.1571979053453216,0.5015361796800508,0.7262806911185208,0.6653650070506563,0.1875699888017917,0.6443384487764413,0.7883349012229539,0.4714221757946575,0.338014421108977,0.235519021219652,0.1751843705524647,0.1540149990854216
0.1538385535026183,0.497404386057845,0.725977568960291,0.669378457533355,0.1861702127659574,0.6420572376607216,0.7979303857008466,0.4747550116897975,0.3398406750842281,0.2372076722105397,0.1768663475223185,0.1566367904396073
0.1435628890425847,0.4865981565843839,0.7260533494998485,0.6805510359041111,0.181224337439343,0.6368726669431771,0.7901222953904045,0.4707257623240312,0.3364715513712649,0.2336710635315108,0.1721223099150386,0.1499908542162063
0.1377334255508349,0.4827841932408094,0.7277963019096696,0.6857576743681527,0.1773982829413961,0.6361468270427209,0.7764816556914393,0.4634134208824553,0.3319374035706414,0.2298158414579749,0.1682408245999913,0.1442594963721724
0.1465270230214405,0.496344951795741,0.7307517429524099,0.6739342661893915,0.1797312430011198,0.6448569058481959,0.7686735653809971,0.4620703377605333,0.3320318649831544,0.2310902950360033,0.1704834605597964,0.1483446131333455
0.1612488884497579,0.5066214641381501,0.7268111548954228,0.6605922551252847,0.1891564016424039,0.6471381169639154,0.7700846660395109,0.4658508680296473,0.3345508359835007,0.2346269037150322,0.1756587743131927,0.1555392963843668
0.1584823634028258,0.501854009958682,0.725447105183389,0.6646057056079835,0.1886898096304591,0.6439236831190378,0.7696142991533397,0.4659503556683082,0.3341100160584401,0.2337985088893137,0.1758744123862509,0.1560270715200293
0.1481078944768303,0.4899883462231169,0.7249924219460442,0.6763206421520772,0.1840238895110116,0.6378058896723352,0.753527751646284,0.4579913445754365,0.3295128939828081,0.2287325559166507,0.1697502911113986,0.1493201634046704
0.1439581069064321,0.4807712681428117,0.7216580782055169,0.683371298405467,0.1841172079134005,0.6309622563251763,0.7359360301034806,0.4499328458439038,0.3254510532447495,0.2244949977697062,0.1639280631388278,0.1416377050179867
0.1517636597174192,0.486386269731963,0.719612003637466,0.6762121705174097,0.1890630832400149,0.6323102447117379,0.732173095014111,0.4510272098691738,0.3273717686325136,0.2271076276046645,0.1675076551515935,0.1447472715078349
0.1647070447584231,0.4954974043860578,0.716201879357381,0.6643887623386485,0.1972751026502426,0.6344877644131065,0.7421448730009407,0.458936477142715,0.3337951446833969,0.2330975594213981,0.1752274981670764,0.1560880434119871
0.1694496591245924,0.4949676872550058,0.7122612913003941,0.6620023863759626,0.2019410227696902,0.6315844048112816,0.7514581373471307,0.4676416455255434,0.338203343934003,0.2368571974765819,0.1793246215551818,0.1609048228766538
0.160458452722063,0.4771691916516579,0.7062746286753562,0.6761036988827421,0.2013811123553565,0.6187266694317711,0.7470366886171214,0.4660498433069691,0.3366289870587865,0.2344994583572293,0.1758744123862509,0.1565148466556917
0.1517636597174192,0.4685877741286152,0.7068808729918157,0.6853237878294826,0.1969018290406868,0.614993778515139,0.7380997177798683,0.4592846838780282,0.332661607733241,0.2306442362836933,0.171130374778971,0.1491982196207548
0.1613476929157198,0.4788642864710243,0.7068808729918157,0.6746935676320642,0.2013811123553565,0.6199709664039817,0.744967074317968,0.4614236681092374,0.3337321704083882,0.2319824125406232,0.1729417345926597,0.1516980671910249
0.1735006422290287,0.4920012713211145,0.7069566535313732,0.6613515565679575,0.2070735349010825,0.626399834093737,0.7604891815616182,0.4695816544794309,0.3388330866840895,0.2372395335499904,0.179885280545133,0.1610267666605695
0.1737970556269143,0.4900942896493271,0.705365262200667,0.6621108580106302,0.2081933557297499,0.6244296972210701,0.7663217309501411,0.4719693578072924,0.3396202651216978,0.238609571146371,0.1814378746711519,0.1627949515273459
0.1649046536903468,0.4738849454391354,0.7005910882085481,0.6753443974400695,0.2069802164986935,0.6132310244711738,0.7529633113828786,0.4637118837984381,0.334676784533518,0.2339259542471165,0.1750981153232415,0.1544418023291263
0.158284754470902,0.4619133382773597,0.6971051833889057,0.6851068445601476,0.206047032474804,0.6049357113231025,0.7485418626528693,0.4596826344326717,0.3306779180704682,0.2299751481552284,0.1699659291844568,0.1484055850253033
0.1645094358264993,0.4689056044072464,0.6973325250075781,0.6781646599414253,0.2087532661440836,0.6085649108253837,0.7565380997177799,0.4629657265084813,0.3327875562832583,0.2313133244121583,0.1711735023935826,0.1501737698920797
0.1734018377630669,0.484267401207755,0.7014246741436799,0.6653650070506563,0.2104329973870847,0.618830360846122,0.7717779868297271,0.4713226881559966,0.3386756509965679,0.2367616134582297,0.1782895588045025,0.1585269190902993
0.170437703784211,0.485326835469859,0.704531676265535,0.6664497233973317,0.2071668533034714,0.6215263376192451,0.7770460959548448,0.4742575734964931,0.3408167763468623,0.2387370165041738,0.1798421529305214,0.1588317785500884
0.1570991008793597,0.4708125860790337,0.7043043346468627,0.6812018657121163,0.2010078387458007,0.6142679386146828,0.7716839134524929,0.4702283241307267,0.3376050883214207,0.2354552985407506,0.1739767973433389,0.1512712639473203
0.1472186542831736,0.4665748490306176,0.7088511670203091,0.6887948801388437,0.1935423665546846,0.6153048527581917,0.7687676387582314,0.4663483062229518,0.3350231430460657,0.2328108073663417,0.1699659291844568,0.1457228217791598
0.1507756150578006,0.48034749443797,0.7160503182782662,0.6797917344614384,0.190836132885405,0.6269182911654916,0.7752587017873941,0.4698801173954136,0.3373217040838818,0.2350092397884407,0.1736749040410575,0.1503566855679531
0.1635213911668807,0.4980400466151075,0.7189299787814488,0.6637379325306432,0.1950354609929078,0.6375985068436334,0.7864534336782689,0.4758493757150674,0.3417928776094965,0.2395016886509909,0.1804028119204727,0.1595634412535821
0.1628297599051477,0.500794575696578,0.7214307365868445,0.6627616878186354,0.1931690929451288,0.6406055578598092,0.7911571025399812,0.4762473262697109,0.343556157309739,0.2413815076785828,0.1820847888903264,0.1620632888238522
0.1530481177749234,0.4861743828795422,0.7184752955441043,0.6755613407094045,0.1903695408734602,0.6314807133969308,0.7825964252116651,0.4715714072526489,0.3411316477219056,0.2383546804307653,0.1776857721999396,0.1563929028717761
0.150479201659915,0.4802415510117597,0.716201879357381,0.6800086777307734,0.1905561776782381,0.6270219825798424,0.7795860771401693,0.4705267870467094,0.3401555464592714,0.2362836933664691,0.175270625781688,0.1529784769221389
0.1581859500049402,0.492425045025956,0.7190057593210064,0.6694869291680227,0.1924225457260172,0.6349025300705101,0.7832549388523048,0.4730637218325623,0.3416039547844706,0.2382590964124132,0.1773407512830465,0.1554173526004512
0.1681652010670882,0.5075749549740438,0.722188541982419,0.6563618613732509,0.1952220977976857,0.6445458316051431,0.7943555973659454,0.478137591404268,0.343461695897226,0.2413815076785828,0.1814810022857635,0.1611487104444851
0.1652998715541942,0.5170039199067697,0.7310548651106396,0.653107712333225,0.1884098544232922,0.6551223558689342,0.7964252116650987,0.477689897030294,0.343650618722252,0.2425922385777098,0.1834217449432872,0.1634046704469239
0.154036162434542,0.510753257760356,0.7352985753258563,0.6624362729146328,0.1804777902202314,0.6550186644545831,0.780620884289746,0.4691339601054569,0.3389590352341069,0.2387051551647231,0.1788933454090654,0.1573074812511432
0.1506768105918387,0.5030193876469965,0.732343134283116,0.6682937411866797,0.1806644270250093,0.6492119452509333,0.7614299153339605,0.4609759737352634,0.3343619131584748,0.2353915758618492,0.1755293914693578,0.1527955612462654
0.1563086651516648,0.5071511812692021,0.7309033040315248,0.6629786310879704,0.1843038447181784,0.6502488593944422,0.7578551269990593,0.4618713624832115,0.3350231430460657,0.236188109348117,0.1774701341268814,0.1552344369245777
0.1676711787372789,0.5145672211039305,0.7275689602909973,0.6529992406985573,0.1916759985069056,0.6515968477810037,0.7613358419567262,0.465154454559021,0.3366919613337952,0.238609571146371,0.1813516194419286,0.1609048228766538
0.1656950894180416,0.5033372179256277,0.7211276144286147,0.659832953682612,0.1947555057857409,0.6416424720033181,0.7536218250235184,0.4625180321345073,0.3352120658710917,0.2375900082839482,0.1801440462328028,0.1615755136881897
0.1583835589368639,0.4823604195359677,0.7116550469839346,0.6745850959973967,0.1970884658454647,0.6249481542928246,0.7294449670743179,0.4523702929910959,0.3295443811203123,0.2312496017332568,0.1734161383533876,0.1535881958417169
0.1570002964133978,0.4704947558004025,0.7042285541073052,0.6814188089814514,0.2010078387458007,0.614060555785981,0.7118532455315145,0.445605133562155,0.3255455146572625,0.2275218250175237,0.1694483978091172,0.1486494725931345
0.1665843296116984,0.470388812374192,0.696802061230676,0.6762121705174097,0.2100597237775289,0.6089796764827872,0.720131702728128,0.4516241357011392,0.3277496142825656,0.2297521187790734,0.1716910337689222,0.1519419547588561
0.177551625333465,0.4748384362750291,0.6915732040012126,0.6679683262826771,0.2185516983949235,0.6075279966818747,0.7334901222953903,0.4595831467940109,0.3323467363581977,0.2338940929076658,0.1768232199077069,0.1596244131455399
0.1747851002865329,0.470388812374192,0.6905122764474083,0.6717648334960408,0.2178984695782008,0.6046246370800498,0.7373471307619943,0.4600805849873153,0.3335117604458579,0.2346587650544829,0.177513261741493,0.1616974574721053
0.1637190000988044,0.4526962601970548,0.6863443467717489,0.6868423907148281,0.2151922359089212,0.5931148900871008,0.72793979303857,0.452718499726409,0.3291035611952517,0.230134454852482,0.1706128434036313,0.1531613925980123
0.156901491947436,0.4434791821167496,0.6849802970597151,0.6953031782188958,0.2128592758491974,0.5877229365408544,0.7211665098777046,0.4470974481420683,0.3250732075946976,0.2263110941183967,0.1649199982748954,0.1465154563746113
0.1684616144649738,0.4570399406716813,0.6858138829948469,0.6820696387894566,0.2178051511758119,0.5948776441310659,0.7298212605832549,0.4524697806297568,0.3287257155451998,0.2293379213662142,0.1697502911113986,0.152307786110603
0.1756743404801897,0.4722957940459794,0.6911943013034254,0.6702462306106953,0.2178984695782008,0.6059726254666113,0.7510818438381938,0.4626175197731682,0.3358418086211783,0.235742050595807,0.178117048346056,0.1615145417962319
0.1732042288311431,0.4699650386693506,0.6914216429220976,0.6727410782080485,0.2165920119447555,0.6050394027374534,0.7602069614299153,0.4687360095508133,0.3385182153090463,0.2384184031096667,0.1813947470565403,0.1646241082860801
0.1586799723347495,0.4549210721474731,0.6918005456198848,0.6884694652348411,0.2094998133631952,0.5979883865615927,0.7568203198494826,0.4649554792816992,0.3364400642337605,0.2348180717517364,0.1760469228446975,0.1565148466556917
0.1498863748641438,0.4458099374933785,0.6919521066989998,0.6979064974509166,0.2052071668533035,0.5935296557445043,0.753151458137347,0.4616226433865592,0.334676784533518,0.2326515006690881,0.1732436278949411,0.1503566855679531
0.1573955142772453,0.4531200339018962,0.691497423461655,0.6900965397548541,0.2090332213512505,0.5968477810037329,0.7594543744120413,0.4655524051136646,0.338297805346516,0.2364748614031734,0.1783326864191141,0.1567587342235229
0.1681652010670882,0.4653035279160927,0.6919521066989998,0.6779477166720903,0.2138857782754759,0.6030692658647864,0.77206020696143,0.4730637218325623,0.3428004660096351,0.241349646339132,0.1846724457670246,0.164989939637827
0.1658926983499654,0.4625489988346222,0.6917247650803274,0.6806595075387786,0.2128592758491974,0.6016175860638739,0.7739416745061147,0.4740585982191713,0.3437135929972606,0.2417319824125406,0.1850605942985294,0.1663922931528565
0.1507756150578006,0.4473990888865344,0.6924825704759019,0.6966048378349061,0.2053004852556924,0.5947739527167151,0.7638758231420508,0.4668457444162562,0.3388015995465852,0.2357739119352577,0.1775563893561047,0.1568197061154807
0.1397095148700721,0.441466257018752,0.6967262806911186,0.705716455146979,0.1974617394550205,0.5946702613023642,0.7571025399811853,0.4602795602646372,0.3339525803709185,0.2316956604855668,0.1714322680812524,0.1488933601609658
0.1499851793301057,0.4596885263269414,0.7018035768414671,0.6908558411975269,0.1991414706980216,0.6071132310244712,0.7665098777046097,0.4658508680296473,0.3371012941213515,0.2345631810361307,0.1754000086255229,0.1535272239497591
0.1638178045647663,0.4802415510117597,0.7059715065171264,0.6727410782080485,0.2031541620007465,0.6199709664039817,0.7861712135465663,0.4757001442570761,0.3433357473472087,0.2405212515134136,0.1825160650364428,0.16212426071581
0.1603596482561012,0.4749443797012393,0.7048347984237648,0.677296886864085,0.202220977976857,0.6166528411447533,0.7939793038570084,0.4799781127194946,0.3449730784974338,0.2416682597336392,0.1828610859533359,0.1620632888238522
0.1479102855449066,0.4622311685559911,0.7052894816611094,0.6906388979281918,0.1960619634191863,0.6107424305267525,0.7891815616180621,0.4773416902949808,0.3423911332220788,0.2399796087427515,0.1796265148574632,0.1566977623315651
0.1453413694298982,0.4591588091958892,0.7050621400424372,0.6935676320642152,0.1949421425905188,0.6090833678971381,0.7840075258701786,0.4744565487738148,0.3422651846720615,0.239374243293188,0.178462069262949,0.1555392963843668
0.1556170338899318,0.4704947558004025,0.705365262200667,0.682178110424124,0.1997013811123554,0.6147863956864372,0.7925682031984947,0.4792319554295379,0.3460121540350767,0.2423692092015548,0.1830335964117825,0.16212426071581
0.1670783519415077,0.4870219302892255,0.7082449227038496,0.6674259681093394,0.2032474804031355,0.6249481542928246,0.8011288805268107,0.4857483957618266,0.3496961491230833,0.2463200152934429,0.1892871005304696,0.1701725504542406
0.1660903072818891,0.4914715541900625,0.7122612913003941,0.6656904219546589,0.200354609929078,0.6298216507673164,0.7984948259642521,0.4841565935432523,0.3490349192354923,0.2463200152934429,0.1897615042911976,0.1718187915371014
0.1519612686493429,0.4836317406504925,0.7174901485298576,0.6774053584987526,0.1904628592758492,0.6296142679386147,0.7863593603010348,0.4749042431477889,0.3441229257848169,0.2412859236602307,0.1828179583387243,0.1621852326077678
0.1495899614662582,0.4827841932408094,0.7187026371627766,0.679140904653433,0.1885964912280702,0.6299253421816674,0.773283160865475,0.4676416455255434,0.3388960609590982,0.2369209201554833,0.1778582826583861,0.1554173526004512
0.1599644303922537,0.492425045025956,0.7176417096089724,0.6686191560906822,0.1941955953714073,0.6339693073413522,0.7746942615239886,0.4697308859374223,0.3400295979092541,0.2392467979353852,0.1810065985250356,0.1612706542284007
0.1693508546586306,0.5000529717131051,0.7158987571991513,0.6595075387786095,0.1996080627099664,0.6365615927001245,0.7804327375352774,0.4740585982191713,0.3435876444472433,0.2428789906327662,0.1874757407167809,0.1698067191024937
0.1660903072818891,0.4941201398453225,0.7140800242497728,0.6642802907039809,0.1992347891004106,0.6324139361260888,0.7677328316086547,0.4716211510719793,0.3426115431846091,0.2414133690180335,0.1866563160391599,0.1695628315346625
0.1514672463195336,0.474308719143977,0.7112003637465899,0.6825035253281267,0.1941022769690183,0.620696806304438,0.7538099717779867,0.46281649505049,0.3366604741962908,0.23497737844899,0.178591452106784,0.1588317785500884
0.1479102855449066,0.4628668291132534,0.7057441648984542,0.6903134830241892,0.1957820082120194,0.6113645790128578,0.7454374412041392,0.4579913445754365,0.33294499197078,0.2309628496782004,0.1731142450511062,0.1521248704347295
0.1629285643711095,0.470918529505244,0.6999848438920886,0.6779477166720903,0.2064203060843598,0.6113645790128578,0.7470366886171214,0.4630154703278118,0.3353695015586133,0.2343720129994265,0.1768232199077069,0.1576123407109322
0.1760695583440371,0.4774870219302892,0.6945286450439527,0.6673174964746719,0.2160321015304218,0.6108461219411033,0.7565380997177799,0.468487290454161,0.3402814950092887,0.2388007391830753,0.1826023202656661,0.165294799097616
0.1767611896057702,0.4676342832927215,0.687026371627766,0.6719817767653758,0.2208846584546472,0.6008917461634177,0.7574788334901222,0.4701288364920658,0.3401870335967757,0.2382909577518639,0.182731703109501,0.1662093774769831
0.1655962849520798,0.4475050323127449,0.6812670506214005,0.6884694652348411,0.2192049272116461,0.5871007880547491,0.7440263405456254,0.4622195692185246,0.3348027330835354,0.2337029248709616,0.176219433303144,0.1581001158465947
0.1595692125284062,0.4365928594130733,0.6780084874204305,0.6973641392775789,0.2183650615901456,0.579531314807134,0.7402634054562558,0.456946724369497,0.3305519695204509,0.2291467533295099,0.1701384396429033,0.1507225169197
0.1679675921351645,0.44358512554296,0.6765686571688391,0.6891202950428462,0.223217618514371,0.5820199087515554,0.7501411100658514,0.4611252051932548,0.3332598633458232,0.2312177403938061,0.1730711174364946,0.1554173526004512
0.1754767315482659,0.4529081470494754,0.6774780236435284,0.680334092634776,0.2262038073908175,0.5871007880547491,0.7668861712135465,0.4705267870467094,0.3394313422966718,0.2369209201554833,0.1807047052227541,0.1651728553137004
0.1736982511609524,0.4567221103930501,0.6816459533191876,0.6793578479227682,0.2227510265024263,0.5918705931148901,0.7735653809971778,0.4744565487738148,0.343556157309739,0.240043331421653,0.1840686591624617,0.1677946466678861
0.160458452722063,0.4462337111982201,0.6842224916641406,0.6919405575442021,0.2150055991041433,0.5884487764413107,0.7618062088428974,0.4685867780928219,0.3404074435593061,0.2373032562288918,0.1793677491697934,0.1612706542284007
0.1534433356387708,0.4428435215594871,0.6871779327068809,0.6975810825469139,0.209779768570362,0.5888635420987143,0.7599247412982125,0.4660995871262995,0.3384237538965333,0.2357739119352577,0.1769094751369301,0.1571245655752698
0.1602608437901393,0.4604301303104141,0.6944528645043954,0.684781429656145,0.2085666293393057,0.6024471173786811,0.7707431796801505,0.4715714072526489,0.3423911332220788,0.2395335499904416,0.1815241299003752,0.1615145417962319
0.1674735698053552,0.4805593812903909,0.7033949681721734,0.6704631738800304,0.2064203060843598,0.6184155951887185,0.7858889934148636,0.4797293936228424,0.3480273308353538,0.2451730070732173,0.187820761633674,0.170355466130114
0.1612488884497579,0.4825723063883885,0.7096089724158837,0.6729580214773836,0.1997013811123554,0.623600165906263,0.7878645343367827,0.4806745261901208,0.3488774835479707,0.2459695405594851,0.1878638892482857,0.1697457472105359
0.1492935480683727,0.4755800402585018,0.7137011215519854,0.6830458835014643,0.1915826801045166,0.6230817088345085,0.7797742238946377,0.4769437397403372,0.345571334110016,0.2422736251832027,0.1821710441195497,0.1616974574721053
0.1461318051575931,0.4695412649645089,0.7118823886026069,0.6878186354268359,0.1912094064949608,0.618830360846122,0.7784571966133583,0.4746555240511366,0.3441859000598256,0.2395335499904416,0.178936473023677,0.1562099871959027
0.1553206204920462,0.479817777306918,0.7121855107608367,0.6775138301334201,0.1953154162000746,0.6241186229780175,0.7909689557855127,0.4811222205640949,0.3481532793853711,0.2426878225960619,0.1839824039332384,0.1626120358514725
0.1662879162138128,0.4999470282868946,0.7181721733858745,0.66124308493329,0.1968085106382979,0.638013272501037,0.8011288805268107,0.4903248271402278,0.3539469126861677,0.2489007837889505,0.1922629059386725,0.1733430888360466
0.1676711787372789,0.5028075007945757,0.7191573204001213,0.6590736522399393,0.1968085106382979,0.6400871007880548,0.8013170272812793,0.4892802069342884,0.3540728612361851,0.2493468425412604,0.1932117134601285,0.1743186391073715
0.1550242070941606,0.4860684394533319,0.7169596847529556,0.6744766243627291,0.1922359089212393,0.6303401078390709,0.7937911571025399,0.4837088991692782,0.349003432097988,0.2442808895685974,0.1870444645706646,0.1660264618011097
0.1481078944768303,0.4720839071935586,0.7121097302212791,0.6854322594641501,0.1919559537140724,0.6202820406470344,0.7822201317027281,0.4760483509923892,0.3443118486098429,0.2401389154400051,0.1820416612757148,0.1615145417962319
0.1563086651516648,0.4790761733234452,0.7108972415883602,0.6774053584987526,0.19662187383352,0.6227706345914559,0.7756349952963312,0.4746555240511366,0.3444692842973645,0.2413177849996813,0.1842411696209082,0.1653557709895738
0.1625333465072621,0.4977222163364763,0.7195362230979084,0.664497233973316,0.1941955953714073,0.6378058896723352,0.7744120413922859,0.4734119285678754,0.3454453855599987,0.244440196265851,0.1878638892482857,0.1697457472105359
0.1457365872937456,0.508952219514779,0.740375871476205,0.6678598546480095,0.1734789100410601,0.6576109498133555,0.7695202257761053,0.4627170074118291,0.343461695897226,0.2459695405594851,0.1859662742053737,0.1635266142308395
0.1147119849817211,0.528127979658862,0.7778872385571386,0.6751274541707344,0.1356849570735349,0.6926586478639569,0.755032925682032,0.4424215291250062,0.3382348310715073,0.2446313643025553,0.1804459395350843,0.148832388269008
0.1058195830451536,0.5284458099374932,0.7849348287359805,0.6799002060961058,0.1271929824561403,0.6976358357527996,0.7642521166509877,0.4475948863353728,0.3492238420605183,0.2583636016058115,0.1892008453012464,0.1487104444850924
0.1609524750518723,0.5427481724758979,0.7529554410427403,0.6422605488664713,0.1729189996267264,0.6827042720862713,0.8190968955785511,0.5115156941749988,0.4076639692685538,0.3225323392595425,0.2519946521757881,0.2052313883299799
0.2735895662483945,0.5513295899989406,0.6726280691118521,0.5760928517192754,0.2754759238521836,0.6319991704686851,0.8774223894637817,0.6162761776849227,0.5133348027330835,0.4410565220161855,0.3722344417130288,0.3202243765624047
0.4082600533544117,0.5289755270685452,0.5534252803879963,0.5136131901507756,0.4125606569615528,0.5395064288676897,0.8699905926622764,0.71586330398448,0.6385906357253063,0.5899445612693559,0.5198602665286584,0.46356929455521
0.5665448078253138,0.5210297701027651,0.4262655350106092,0.4307408612647792,0.5656028368794327,0.4485690584819577,0.7896519285042333,0.8054021787792868,0.7724109701187065,0.7484865863760913,0.6733083193168586,0.6177062374245474
0.7334255508348978,0.5594872338171415,0.3257805395574416,0.3194489640958889,0.706233669279582,0.3986934881791788,0.6842897460018814,0.8712629955728001,0.8740199628451778,0.8732874530045244,0.8050200543407944,0.7648314127187368
0.8918091097717616,0.6344951795741073,0.2579569566535313,0.1940557544202191,0.8227883538633819,0.3889464952301949,0.551175917215428,0.8826045863801424,0.9059794074120724,0.9186261390428856,0.8869625221029026,0.8900676788000733
1.0,0.6543066002754527,0.1890724461958169,0.1246339082329969,0.9162933930571108,0.3516175860638739,0.4070555032925682,0.8481818634034721,0.8939198337479141,0.8978206843815715,0.9028334842799844,0.9567099567099568
0.9312320916905444,0.5575802521453543,0.1727038496514095,0.2118451025056947,0.8938969764837627,0.2930319369556201,0.3268109125117591,0.7083022434462518,0.7674989766680312,0.7602752819728542,0.7817742700651228,0.8654350344491191
0.7142574844382966,0.4251509693823497,0.2444680206123067,0.3987417290378565,0.7472937663307204,0.2772708419742845,0.2060206961429915,0.4094911207282495,0.4685286060644227,0.4870642961830115,0.5299521283477812,0.6351441985244803
0.4523268451734019,0.4112723805487869,0.4353591997575023,0.5496257728603969,0.5060656961552819,0.4010783907092493,0.1174976481655691,0.1295826493558175,0.1659372146478163,0.1909131459886573,0.2372881355932203,0.3458935430766417
0.3139017883608339,0.4470812586079033,0.5671415580478933,0.6073326825035253,0.3594624860022397,0.5088137702198258,0.1133584195672624,0.0430284037208376,0.0490569602317453,0.0537500796533486,0.0830637857420106,0.1780988964087555
0.299575140796364,0.4650916410636719,0.5910124280084875,0.6059225512528473,0.3379992534527809,0.5340107839070926,0.2289746001881467,0.1481370939660747,0.119934506753991,0.0979098961320334,0.1021693190149652,0.1724894823486372
0.2733919573164707,0.4931666490094288,0.6311761139739315,0.6059225512528473,0.3009518477043673,0.5751762754043965,0.4111006585136407,0.2959757250161667,0.2247866746434081,0.1735168546485694,0.1556475611333937,0.1964514358880556
0.222507657346112,0.4852208920436487,0.6645195513792058,0.6379216834797701,0.2563456513624487,0.5941518042306098,0.5587017873941674,0.3936228423618365,0.2905633048899525,0.2120690753839291,0.1720791823004269,0.1830985915492957
0.1973125185258373,0.4666807924568279,0.6705062140042437,0.66124308493329,0.2407614781634938,0.5891746163417668,0.6538099717779867,0.4475451425160424,0.3246009005321326,0.2290193079717071,0.1769094751369301,0.1713919882933967
0.1956328426044857,0.4644559805064095,0.6702788723855715,0.6633040459919731,0.2401082493467712,0.5878266279552053,0.7150517403574788,0.4752027060637715,0.3425170817720961,0.2379723443573568,0.1830767240263941,0.1739528077556246
0.1902974014425452,0.4651975844898824,0.6749772658381328,0.6657988935893263,0.2347891004106009,0.5914558274574865,0.7528692380056443,0.4867432721484356,0.3492868163355269,0.2407442808895686,0.1848018286108595,0.1747454423510761
0.1730066198992194,0.4510011653776883,0.6780084874204305,0.6826119969627943,0.2247107129525943,0.5865823309829947,0.7747883349012229,0.4881360990896881,0.348531125035423,0.2370483655132861,0.1777720274291629,0.1659654899091519
0.1466258274874024,0.4296005932831866,0.6829342224916641,0.7079943594749973,0.2092198581560283,0.579531314807134,0.7823142050799624,0.482912998059991,0.3425485689096004,0.2283820811826929,0.1656531677232932,0.1495640509725016
0.1348680960379409,0.4222904968746688,0.6866474689299787,0.718299164768413,0.2013811123553565,0.5783907092492742,0.7876763875823142,0.4809232452867731,0.3391794451966372,0.2229019307971707,0.1586664941562082,0.1373087006889824
0.1410927773935382,0.4292827630045555,0.6869505910882086,0.7112485085150234,0.204087346024636,0.5821236001659063,0.802351834430856,0.4876386608963836,0.3416984161969835,0.2238259096412413,0.159874067365334,0.1378574477166026
0.1446497381681652,0.43309672634813,0.6869505910882086,0.7073435296669921,0.2058603956700261,0.5839900456242223,0.8172154280338664,0.4950007461572899,0.3466733839226676,0.2268208755496081,0.1635830422219347,0.1429790866410584
0.1382274478806442,0.4229261574319313,0.6846013943619279,0.7161297320750624,0.204180664427025,0.5773537951057652,0.8197554092191909,0.495448440531264,0.346421486822633,0.2259606193844389,0.1606934920429551,0.1404792390707883
0.1228139511905938,0.4042801144189002,0.6831615641103366,0.734136023429873,0.1978350130645763,0.5672957279137287,0.8124176857949199,0.489230463114958,0.340596366384332,0.219779519531001,0.1519817138914047,0.1288945795988049
0.1224187333267463,0.3963343574531199,0.6776295847226432,0.7383664171819069,0.2010078387458007,0.5596225632517627,0.8087488240827846,0.4863950654131224,0.3376995497339337,0.2157649907602115,0.1472376762841247,0.1220657276995305
0.1341764647762079,0.4036444538616378,0.6739163382843286,0.7281700835231587,0.2089399029488615,0.5605557859809208,0.8167450611476952,0.4926130428294284,0.3420132875720268,0.2189511247052826,0.1513779272868417,0.1286506920309737
0.1432664756446991,0.4093653988769996,0.6710366777811458,0.7202516541924288,0.2149122807017544,0.5614890087100788,0.8244590780809031,0.4997264089936825,0.3464844610976416,0.2224558720448607,0.1559063268210635,0.1362112066337418
0.1363501630273688,0.3970759614365928,0.6675507729615036,0.7303395162165094,0.2137924598730869,0.5530900041476566,0.819379115710254,0.4978361438591255,0.3447211813973992,0.2207990823934238,0.1539655841635399,0.1337723309554295
0.1256792807034878,0.3752516156372497,0.6601242800848742,0.7473695628593123,0.2133258678611422,0.537328909166321,0.8031984948259643,0.489230463114958,0.3389590352341069,0.2153507933473523,0.1470651658256782,0.1268215352722395
0.1252840628396403,0.3634918953278949,0.6519399818126705,0.7535524460353618,0.2181784247853677,0.525922853587723,0.7955785512699904,0.4856489081231657,0.3358418086211783,0.211973491365577,0.1422348729891749,0.1224925309432351
0.131903962059085,0.3696366140480983,0.651333737496211,0.7468272046859746,0.2217245240761478,0.5285151389464953,0.8070555032925681,0.4888325125603144,0.3371327812588557,0.2122921047600841,0.1433993185836891,0.1234071093226023
0.1405987550637288,0.3805487869477698,0.6523946650500152,0.7365223993925588,0.225177304964539,0.5346329323931979,0.8191909689557855,0.4949510023379595,0.3407538020718537,0.215605684062958,0.1477120800448527,0.1298701298701298
0.1337812469123604,0.3697425574743087,0.6499696877841771,0.7457424883392993,0.2234975737215379,0.5275819162173373,0.8183443085606773,0.4913694473461672,0.3387071381340722,0.2130249155674504,0.1440893604174753,0.1256630693250411
0.1210354708032803,0.3544867041000105,0.6489087602303728,0.760494630654084,0.2180851063829787,0.5193902944836167,0.8066792097836312,0.4827637666019997,0.3320633521206587,0.2065889249984069,0.1349031785051969,0.1147491006645936
0.1185653591542337,0.355122364657273,0.6511821764170961,0.7615793470007592,0.2154721911160881,0.5213604313562836,0.8116650987770461,0.4831119733373128,0.3309927894455115,0.2043586312368572,0.1317117350239358,0.1100542649838424
0.1255804762375259,0.3692128403432566,0.655956350409215,0.7505152402646708,0.2158454647256439,0.5315221899626711,0.8313264346190027,0.4933592001193851,0.3376995497339337,0.2090103867966609,0.1373614525380601,0.1159685385037497
0.1360537496294832,0.3767348236041953,0.653228250985147,0.7409697364139278,0.2225643896976484,0.5332849440066363,0.8521166509877705,0.5064915684226236,0.3443433357473472,0.2148091505766902,0.1435718290421357,0.1243216877019694
0.1297302638079241,0.372179256277148,0.6548954228554108,0.7467187330513071,0.2185516983949235,0.5321443384487765,0.8527751646284101,0.5075859324478933,0.3453509241474858,0.215159625310648,0.1432268081252426,0.1238339125663069
0.1172809010967295,0.3554401949359042,0.6523946650500152,0.7621217051740969,0.2141657334826427,0.5222936540854417,0.8427093132643462,0.499776152813013,0.3401240593217671,0.2097431976040272,0.1364557726312157,0.1146881287726358
0.1180713368244244,0.3579828371649539,0.6535313731433768,0.7603861590194164,0.2137924598730869,0.5243674823724596,0.8439322671683913,0.4979356314977864,0.3384867281715419,0.2076084878608296,0.1344719023590805,0.1124931406621547
0.1275565655567631,0.3811844475050323,0.663003940588057,0.7433561123766135,0.2124860022396417,0.542098714226462,0.8560677328316086,0.507536188628563,0.3447841556724078,0.2128337475307462,0.1414585759261655,0.1214560087799524
0.1352633139017883,0.401313698485009,0.671415580478933,0.7288209133311638,0.2108995893990295,0.5577561177934467,0.8754468485418626,0.5196736805451923,0.3524670172234642,0.2197476581915503,0.1496959503169879,0.1304798487897079
0.1258768896354115,0.3998304905180633,0.6774780236435284,0.7346783816032108,0.2027808883911908,0.5611779344670261,0.8797742238946377,0.5216634333184101,0.3536950155861331,0.2199388262282546,0.1499978436192694,0.1301749893299189
0.1113526331390178,0.3845746371437651,0.6777811458017582,0.7505152402646708,0.1956886898096305,0.5539195354624636,0.8714957666980244,0.5165398199273741,0.3490664063729966,0.2145223985216338,0.1428817872083495,0.1210901774282056
0.1088825214899713,0.3847865239961859,0.679827220369809,0.7517084282460137,0.1933557297499067,0.5554749066777271,0.8687676387582314,0.5149977615281301,0.3467048710601719,0.210985789842605,0.1378789839133997,0.1157246509359185
0.1170832921648058,0.3905074690115478,0.6776295847226432,0.7443323570886213,0.1985815602836879,0.5567192036499379,0.8800564440263405,0.5224593344276974,0.3500425076356309,0.2119416300261263,0.1394747056540303,0.1193219925614291
0.1271613476929157,0.393473884945439,0.6720218247953926,0.737173229200564,0.2067002612915267,0.5543343011198673,0.8927563499529633,0.5316619410038302,0.3539469126861677,0.2150959026317466,0.1431405528960193,0.1250533504054631
0.1232091690544412,0.3862697319631316,0.6698999696877842,0.7431391691072784,0.2062336692795819,0.5493571132310245,0.8890874882408277,0.5318111724618216,0.3523725558109513,0.2125151341362391,0.1397334713417001,0.1210292055362478
0.11411915818595,0.3699544443267294,0.6651257956956654,0.7564811801713851,0.2048338932437477,0.5381584404811282,0.8771401693320791,0.5268865343481073,0.346421486822633,0.2053463327598292,0.1313667141070427,0.1112127309310408
0.1106610018772848,0.3623265176395804,0.6624734768111549,0.7622301768087646,0.2048338932437477,0.53255910410618,0.8725305738476011,0.5253444759488634,0.3428319531471394,0.2001529344293634,0.1247681890714624,0.1056642887628803
0.1229127556565556,0.3696366140480983,0.6582297665959381,0.7517084282460137,0.2132325494587532,0.5331812525922853,0.8841956726246472,0.5353927274536139,0.3464529739601373,0.2014911106862932,0.1279596325527235,0.1107249557953783
0.1322003754569706,0.3696366140480983,0.6511063958775386,0.7466102614166396,0.2220044792833146,0.5284114475321443,0.900846660395108,0.5461373924289906,0.3508296860732391,0.2040400178423501,0.132401776857722,0.1176757514785683
0.1329908111846655,0.3538510435427481,0.6392846317065777,0.7543117474780345,0.2296565882792086,0.5125466611364579,0.9031984948259644,0.5505645923494006,0.3498535848106049,0.202287644172561,0.1300728856686936,0.1167611730992012
0.1221223199288607,0.333086132005509,0.6327675053046378,0.7709079075821673,0.2285367674505412,0.4979261717129822,0.8988711194731891,0.5497686912401134,0.3462640511351113,0.1970942458420952,0.1233449777892784,0.1092616303883909
0.1253828673056022,0.3287424515308824,0.6270081842982722,0.7713417941208374,0.2335759611795446,0.4919120696806304,0.901975540921919,0.5520569069293141,0.345571334110016,0.1941311412731791,0.1200241514641825,0.1084080239009816
0.13694298982314,0.3382773598898188,0.6250378902697787,0.7601692157500815,0.2402948861515491,0.4951265035255081,0.9133584195672624,0.5599164303835249,0.3496961491230833,0.1968712164659402,0.1247681890714624,0.1169440887750747
0.1449461515660507,0.3457993431507574,0.6243558654137618,0.7519253715153488,0.2444942142590519,0.4983409373703857,0.9245531514581372,0.5702631448042581,0.3537579898611417,0.2001847957688141,0.1297278647518006,0.1254801536491677
0.1393142970062247,0.3314969806123529,0.618369202788724,0.7622301768087646,0.2455207166853303,0.4873496474491912,0.9229539040451552,0.5703128886235885,0.3530337856985422,0.1985917287962786,0.1280027601673351,0.1235900249984757
0.1308171129335046,0.3078715965674329,0.6079114883297969,0.7790432801822323,0.2479469951474431,0.4685815014516798,0.9136406396989653,0.5680744167537184,0.3507667117982304,0.1936532211814184,0.1224824254970457,0.1156027071520029
0.134769291571979,0.2883780061447187,0.5910124280084875,0.7868532378782949,0.2601717058603957,0.4475321443384488,0.9161806208842898,0.573247773964085,0.35149091596083,0.1920282928694322,0.1195928753180661,0.113041887689775
0.1525540954451141,0.2899671575378747,0.5785086389815096,0.7763314893155441,0.2763157894736842,0.439651596847781,0.9285983066792096,0.5814057603342785,0.3557416795239145,0.1949595360988976,0.1226980635701039,0.1201755990488385
0.1692520501926687,0.3058586714694352,0.5771445892694755,0.7589760277687385,0.2850877192982456,0.4464952301949398,0.9337723424270932,0.5887678455951848,0.3623224912623194,0.2013318039890397,0.1310648208047612,0.1323090055484422
0.1751803181503804,0.3079775399936433,0.5740375871476205,0.754637162382037,0.2897536394176931,0.445458316051431,0.924082784571966,0.5896632343431328,0.3663528448628735,0.2057605301726884,0.1369301763919437,0.1382232790683495
0.1727102065013338,0.3024684818307023,0.5719915125795696,0.7588675561340709,0.2898469578200821,0.4414143508917462,0.8963311382878645,0.580460627767,0.3649044365376743,0.2060472822277448,0.1363695174019925,0.1334064996036827
0.1800217369825116,0.3176183917787901,0.5771445892694755,0.7470441479553097,0.290126913027249,0.4523019493985897,0.8816556914393227,0.5770780480525295,0.36792720173809,0.2117186006499713,0.144003105188252,0.1412718736662399
0.1981029542535323,0.3460112300031782,0.5836617156714156,0.722529558520447,0.2946995147443076,0.4706553297386976,0.8857949200376294,0.5818534547082524,0.3767750873768066,0.2258968967055375,0.1627636175443136,0.1632827266630083
0.2144056911372394,0.3703782180315711,0.5885874507426493,0.7011606464909426,0.2992721164613662,0.4860016590626296,0.8790216368767638,0.5820524299855743,0.3841430775528197,0.2399796087427515,0.1802303014620261,0.1821840131699286
0.2095642723051082,0.3757813327683016,0.5961655046983934,0.7010521748562751,0.2923665546845838,0.4937785151389465,0.8652869238005644,0.5730487986867632,0.384552410340376,0.2459376792200344,0.1891577176866347,0.1885860618254984
0.1968184961960281,0.3753575590634601,0.6055622916035163,0.7082113027443324,0.280608435983576,0.5,0.8463781749764816,0.5612595135054469,0.382159387890047,0.2491238131651054,0.1919610126363911,0.1873666239863423
0.1915818595000494,0.392944167814387,0.6222340103061533,0.7021368912029504,0.2678238148562897,0.5200124429697222,0.8386641580432737,0.5533005024125752,0.3825687206776032,0.2548269929267827,0.1982576443696899,0.1913907688555575
0.1981029542535323,0.4237737048416145,0.6392846317065777,0.6828289402321294,0.2604516610675625,0.5467648278722522,0.8483537158984007,0.5553399990051237,0.3875122012657829,0.2641623653858408,0.2080044852719196,0.2017559904883848
0.2042288311431677,0.4431613518381183,0.6484540769930283,0.6694869291680227,0.257652108995894,0.5625259228535877,0.8506114769520225,0.5547928169924887,0.3905034793286943,0.2700248518447716,0.2160262215896839,0.2086458142796171
0.1909890327042782,0.4416781438711728,0.6575477417399213,0.6775138301334201,0.2458006718924972,0.568021567814185,0.8448730009407337,0.5455902104163558,0.3873862527157656,0.2690690116612502,0.2151636692974511,0.202975428327541
0.1787372789250074,0.4360631422820213,0.6629281600484995,0.6870593339841631,0.2367487868607689,0.5689547905433431,0.8276575729068674,0.5348952892603095,0.3814351837274474,0.2650863442299114,0.209255186095657,0.1943783915614901
0.1774528208675032,0.4299184235618179,0.6595938163079721,0.6909643128321944,0.2381485628966032,0.5636665284114475,0.8146754468485418,0.5276824354573943,0.3780030857394755,0.263588861275728,0.2066244016043472,0.1901713310164014
0.1900997925106215,0.4353215382985484,0.6536071536829343,0.6813103373467838,0.2478536767450541,0.5622148486105351,0.8133584195672625,0.5297716758692732,0.3802071853647785,0.2675396673676161,0.2117997153577435,0.1968172672398024
0.1978065408556467,0.437016633117915,0.6490603213094878,0.6761036988827421,0.2542926465098917,0.5599336374948155,0.8083725305738475,0.5288762871213252,0.3807739538398564,0.269642515771363,0.2153361797558977,0.2019998780562161
0.186147613872147,0.4271638944803474,0.6508790542588663,0.6876016921575009,0.2475737215378873,0.5563044379925343,0.7970837253057383,0.5221111276923842,0.376428728864259,0.2667112725418977,0.2121878638892483,0.1968782391317602
0.177551625333465,0.4139209662040469,0.6479993937556835,0.6990996854322594,0.2453340798805524,0.547905433430112,0.7730009407337723,0.509874148137094,0.3695960200258195,0.260721340725164,0.2042955104153189,0.188098286689836
0.1800217369825116,0.4191121940883567,0.6498181267050621,0.6950862349495607,0.2453340798805524,0.551742015761095,0.7638758231420508,0.5079838830025369,0.3692181743757675,0.2602752819728541,0.2032604476646397,0.1863910737150173
0.1912854461021638,0.437016633117915,0.6539860563807215,0.6796832628267708,0.248133631952221,0.5633554541683949,0.7786453433678269,0.5148485300701388,0.3729021694637741,0.2645128401197987,0.2085220166472592,0.1937077007499542
0.1982017587194941,0.4489882402796906,0.6572446195816914,0.6698123440720252,0.2493467711832774,0.5713396930734136,0.7914393226716839,0.5190767547132269,0.3757674989766681,0.2669980245969541,0.2118428429723552,0.1988293396744101
0.1883213121233079,0.4372285199703358,0.6563352531070021,0.6813103373467838,0.2453340798805524,0.5650145167980091,0.7844778927563498,0.5168382828433568,0.3736263736263737,0.2650863442299114,0.2092983137102687,0.1946222791293214
0.1774528208675032,0.4236677614154041,0.6550469839345257,0.6941099902375529,0.2409481149682717,0.5575487349647449,0.770178739416745,0.5096751728597722,0.3689977644132372,0.2609125087618684,0.2040798723422607,0.1879763429059203
0.1812073905740539,0.4305540841190803,0.657168839042134,0.6885779368695086,0.2414147069802165,0.5623185400248859,0.7694261523988711,0.5066905436999454,0.3678012531880727,0.2595743325049385,0.2024410229870186,0.1871227364185111
0.1936567532852485,0.4492001271321115,0.6609578660200062,0.6721987200347109,0.2449608062709966,0.5740356698465368,0.7831608654750706,0.5146992986121475,0.3728706823262698,0.2646084241381508,0.2081769957303662,0.1942564477775745
0.1993874123110365,0.4566161669668396,0.6617914519551379,0.6652565354159887,0.2472004479283315,0.5782870178349233,0.7975540921919096,0.5224095906083669,0.3766806259642936,0.2685273688905882,0.2127916504938111,0.1996219742698616
0.1879260942594605,0.4399830490518063,0.6586844498332829,0.6801171493654409,0.2436543486375513,0.5679178763998342,0.7979303857008466,0.5220613838730538,0.3750747819515728,0.2656279870005735,0.2089101651787639,0.1948661666971526
0.1760695583440371,0.4218667231698272,0.6548196423158533,0.6958455363922335,0.240388204553938,0.5565118208212361,0.7906867356538099,0.5132567278515645,0.3691866872382632,0.2592557191104314,0.1998964937249321,0.1835253947930004
0.1719197707736389,0.421019175760144,0.6573961806608064,0.6985573272589217,0.2368421052631579,0.5578598092077977,0.7874882408278456,0.5083320897378502,0.3669825876129601,0.2577263748167973,0.1973950920774572,0.1798061093835741
0.1830846754273293,0.4347918211674965,0.6586844498332829,0.6853237878294826,0.2414147069802165,0.5654292824554127,0.7963311382878645,0.5140028851415211,0.3702257627759061,0.2623144076976996,0.20511493509294,0.1875495396622157
0.1964232783321806,0.4422078610022248,0.653758714762049,0.6742596810933941,0.2506532288167226,0.5657403566984653,0.8068673565380996,0.5200716310998359,0.3752637047765988,0.267444083349264,0.2127916504938111,0.1980367050789586
0.1921746862958205,0.4308719143977115,0.6489087602303728,0.6823950536934591,0.2516797312430011,0.5568228950642886,0.8002822201317028,0.5176341839526439,0.3743820649264776,0.266233352450137,0.2108509078362876,0.1951710261569416
0.1785396699930836,0.4154041741709926,0.6482267353743558,0.6977980258162491,0.2457073534901082,0.5487349647449191,0.7893697083725304,0.5091777346664678,0.3689033030007242,0.2608169247435162,0.2037348514253676,0.1857813547954393
0.1778480387313506,0.4152982307447822,0.6486814186117006,0.6982319123549192,0.2450541246733856,0.5490460389879719,0.7922859830667921,0.5092772223051286,0.3688403287257155,0.261167399477474,0.2035623409669211,0.1873666239863423
0.1843691334848335,0.428117385316241,0.6529251288269173,0.6880355786961709,0.2455207166853303,0.5582745748652012,0.8115710253998117,0.5151469929861215,0.3728391951887654,0.265564264321672,0.2094276965541036,0.1946222791293214
0.1842703290188716,0.443055408411908,0.663685965444074,0.6804425642694435,0.2388951101157148,0.572895064288677,0.8299153339604891,0.5243993433815848,0.3782234957020058,0.27085324667049,0.21671626342347,0.2011462715688068
0.176168362809999,0.4401949359042271,0.6678538951197333,0.686408504176158,0.2324561403508772,0.5743467440895894,0.8286923800564441,0.5222106153310452,0.3773418558518845,0.270311603899828,0.2160693492042955,0.1996219742698616
0.1584823634028258,0.4266341773492954,0.6717187026371628,0.7031131359149583,0.2217245240761478,0.5704064703442556,0.8172154280338664,0.5122121076456251,0.370886992663497,0.2644809787803479,0.20748695389658,0.1894396683129077
0.1500839837960675,0.4277995550376098,0.6789936344346772,0.7070181147629895,0.2132325494587532,0.5759021153048528,0.8191909689557855,0.5102720986917375,0.3693441229257848,0.2627604664500095,0.2039936171130374,0.1857813547954393
0.1649046536903468,0.4472931454603241,0.6814943922400727,0.6890118234081788,0.2187383351997014,0.5871007880547491,0.8284101599247412,0.515196736805452,0.3716111968260966,0.2651819282482636,0.20748695389658,0.1917566002073044
0.1748839047524948,0.4573577709503124,0.6811154895422855,0.6782731315760928,0.2236842105263158,0.5918705931148901,0.8289746001881467,0.5159428940954086,0.3722094524386788,0.2664882431657427,0.2101177383878898,0.1970611548076337
0.1718209663076771,0.4485644665748489,0.6770991209457412,0.6845644863868099,0.2247107129525943,0.5847158855246786,0.8097836312323612,0.5090782470278068,0.3692811486507761,0.2637800293124323,0.20748695389658,0.1949271385891104
0.1643118268945756,0.427587668185189,0.6679296756592906,0.699425100336262,0.2268570362075401,0.5682289506428868,0.78137347130762,0.4970402427498384,0.3628892597373973,0.257758236156248,0.201319705007116,0.186817876958722
0.1679675921351645,0.425468799660981,0.6636101849045166,0.6984488556242543,0.2312430011198208,0.564184985483202,0.770178739416745,0.4953489528926031,0.3613149028621808,0.2567068119543745,0.2002846422564368,0.1852935796597768
0.1801205414484734,0.4365928594130733,0.66232191573204,0.6860830892721553,0.2377752892870474,0.5688510991289921,0.7726246472248353,0.5009700044769437,0.3645265908876224,0.2605620340279105,0.2061068702290076,0.191573684531431
0.1870368540658037,0.4462337111982201,0.6637617459836314,0.6774053584987526,0.2401082493467712,0.5744504355039403,0.7792097836312324,0.5058448987713277,0.3671400233004818,0.2640030586885873,0.211152801138569,0.198524480214621
0.1784408655271218,0.4376522936751774,0.6642922097605335,0.686408504176158,0.2357222844344904,0.5706138531729573,0.7757290686735653,0.5024125752375267,0.3652193079127177,0.2613267061747276,0.2081338681157545,0.1956588012926041
0.1652998715541942,0.4236677614154041,0.664367990300091,0.70083523158694,0.2294699514744307,0.5638739112401493,0.7601128880526811,0.494453564144655,0.360464750149564,0.2569617026699802,0.2011040669340579,0.1863910737150173
0.1673747653393933,0.4252569128085602,0.6639133070627463,0.6988827421629245,0.2307764091078761,0.5642886768975529,0.7559736594543743,0.4934586877580461,0.3596775717119557,0.2564837825782196,0.2003277698710484,0.185537467227608
0.1794289101867404,0.4394533319207542,0.6648226735374356,0.6849983729254799,0.2359089212392684,0.5719618415595189,0.7675446848541861,0.5003233348256478,0.3642432066500835,0.2608806474224176,0.2064518911459007,0.1938296445338699
0.1849619602806047,0.4467634283292721,0.6658078205516824,0.6782731315760928,0.2378686076894363,0.5761094981335546,0.7764816556914393,0.5050987414813709,0.3674234075380207,0.2643216720830943,0.2109371630655108,0.1997439180537772
0.1802193459144353,0.4388176713634918,0.6637617459836314,0.6848899012908125,0.2369354236655468,0.570821236001659,0.7735653809971778,0.5022633437795354,0.3649988979501874,0.2617727649270375,0.208435761418036,0.1962685202121822
0.1730066198992194,0.4277995550376098,0.6614125492573507,0.694543876776223,0.2349757372153789,0.5638739112401493,0.7663217309501411,0.4966422921951947,0.3602758273245379,0.2562926145415153,0.2017078535386208,0.1874275958783001
0.1732042288311431,0.4299184235618179,0.6627765989693847,0.6933506887948802,0.2342291899962672,0.5658440481128163,0.7694261523988711,0.4953986967119335,0.3595516231619383,0.2548269929267827,0.2004140251002717,0.1846838607401987
0.185455982610414,0.4421019175760143,0.6620945741133677,0.680334092634776,0.240388204553938,0.5713396930734136,0.7805268109125117,0.5004725662836393,0.3620705941622847,0.257981265532403,0.2038211066545909,0.1914517407475154
0.1929651220235154,0.4515308825087403,0.6630797211276145,0.6714394185920382,0.2432810750279955,0.576627955205309,0.7853245531514581,0.5048997662040491,0.3637394124500142,0.2597655005416428,0.2066675292189589,0.1948051948051948
0.1859500049402233,0.4477169191651658,0.6656562594725675,0.6771884152294175,0.2384285181037701,0.5765242637909582,0.7800564440263406,0.4989802517037258,0.360086904499512,0.2569298413305295,0.2035623409669211,0.1906591061520639
0.1767611896057702,0.4368047462654941,0.6649742346165505,0.6878186354268359,0.2345091452034341,0.5707175445873082,0.7690498588899342,0.4915186788041586,0.3559620894864448,0.2525966991652329,0.1977401129943503,0.1829766477653801
0.1826894575634818,0.4332026697743405,0.6579266444377084,0.686408504176158,0.2416013437849944,0.5640812940688511,0.770178739416745,0.4913694473461672,0.3559306023489405,0.2524373924679793,0.197653857765127,0.1832815072251692
0.1973125185258373,0.432567009217078,0.646180660806305,0.6787070181147631,0.255785740948115,0.5557859809207798,0.7831608654750706,0.4978361438591255,0.3599294688119903,0.2550181609634869,0.2019234916116789,0.1919395158831778
0.2041300266772058,0.4299184235618179,0.6391330706274629,0.6763206421520772,0.26334453154162,0.5496681874740772,0.7863593603010348,0.5003730786449784,0.3602128530495292,0.2556235264130504,0.2040798723422607,0.1968782391317602
0.1902974014425452,0.4194300243669879,0.6421642922097606,0.6892287666775139,0.2549458753266144,0.5465574450435504,0.7747883349012229,0.4917176540814804,0.3556787052489059,0.2519594723762187,0.2004140251002717,0.1918175720992622
0.1745874913546092,0.3998304905180633,0.6401939981812671,0.7078858878403297,0.2486935423665547,0.5356698465367068,0.7628410159924741,0.4793811868875292,0.3462010768601027,0.2438985534951889,0.1896752490619744,0.178586671544418
0.1679675921351645,0.391355016421231,0.6392088511670203,0.7159127888057273,0.2462672639044419,0.5307963500622149,0.7623706491063029,0.4754514251604239,0.3420447747095312,0.2394698273115401,0.1832923620994523,0.1701725504542406
0.1673747653393933,0.3958046403220679,0.6428463170657774,0.7139602993817116,0.2436543486375513,0.5355661551223558,0.7752587017873941,0.479132467790877,0.3426430303221134,0.2395335499904416,0.1837667658601803,0.1713310164014389
0.1612488884497579,0.4048098315499523,0.6539860563807215,0.7126586397657012,0.2339492347891004,0.5475943591870593,0.7896519285042333,0.4832114609759738,0.3445322585723732,0.2408717262473714,0.1851899771423642,0.1729162855923419
0.1461318051575931,0.3978175654200656,0.6605789633222188,0.7245905195791301,0.2227510265024263,0.5486312733305683,0.7851364063969896,0.4780878475849375,0.340785289209358,0.237398840247244,0.1795833872428516,0.1656606304493628
0.1338800513783223,0.3856340714058692,0.6612609881782359,0.7376071157392342,0.2165920119447555,0.543135628369971,0.7783631232361241,0.4701785803113963,0.3358418086211783,0.232332887274581,0.1729848622072713,0.155783183952198
0.1297302638079241,0.3848924674223964,0.6639133070627463,0.740210434971255,0.2129525942515864,0.5445873081708834,0.7936970837253057,0.4743570611351539,0.3380773953839857,0.2346269037150322,0.1748393496355716,0.1571245655752698
0.1386226657444916,0.3980294522724864,0.6664898454076994,0.7286039700618289,0.215565509518477,0.552778929904604,0.816274694261524,0.4857483957618266,0.3459806668975724,0.2421143184859491,0.1847155733816362,0.1686482531552954
0.1437604979745084,0.4086237948935268,0.6702030918460139,0.7203601258270962,0.2157521463232549,0.5604520945665699,0.8231420507996238,0.4924638113714371,0.3507352246607261,0.246415599311795,0.1922629059386725,0.1765745991098104
0.1413891907914237,0.4054454921072147,0.6696726280691119,0.7232888599631196,0.2149122807017544,0.5585856491082538,0.8017873941674505,0.4829627418793215,0.3457287697975377,0.2431657426878226,0.189718376676586,0.173221145052131
0.1397095148700721,0.4086237948935268,0.6732343134283116,0.722529558520447,0.211926091825308,0.5625259228535877,0.7617121354656632,0.4669452320549171,0.3391479580591329,0.2377493149812018,0.1830335964117825,0.1663922931528565
0.1429700622468135,0.421548892891196,0.679978781448924,0.7141772426510468,0.2093131765584173,0.5735172127747822,0.746095954844779,0.4626175197731682,0.3363141156837432,0.2355827438985535,0.1809203432958123,0.1638314736906286
0.1557158383558936,0.4344739908888653,0.6794483176720219,0.7006182883176049,0.215658827920866,0.5794276233927831,0.7542803386641581,0.4702283241307267,0.3404389306968103,0.2396609953482444,0.185448742830034,0.1718797634290592
0.163323782234957,0.4347918211674965,0.6739163382843286,0.6962794229309035,0.2226577081000373,0.575798423890502,0.7640639698965194,0.4758493757150674,0.343650618722252,0.2429427133116676,0.1885970586966835,0.1774282055972197
0.1530481177749234,0.4214429494649857,0.6721733858745074,0.7086451892830025,0.2189249720044792,0.5681252592285359,0.7580432737535276,0.4707257623240312,0.3407223149343493,0.2399796087427515,0.1839392763186268,0.1729772574842997
0.1391166880743009,0.4098951160080517,0.6745225826007881,0.7222041436164442,0.2108995893990295,0.5640812940688511,0.7492944496707431,0.463811371437099,0.3357788343461696,0.2351366851462435,0.1771682408246,0.1626730077434303
0.1456377828277838,0.4184765335310944,0.6757350712337071,0.7142857142857143,0.2131392310563643,0.5690584819576939,0.751552210724365,0.4653534298363428,0.337919959696464,0.2371439495316383,0.1802303014620261,0.1645021645021645
0.15976682146033,0.4355334251509693,0.6770991209457412,0.6977980258162491,0.2190182904068682,0.5783907092492742,0.7639698965192849,0.4745062925931453,0.3427689788721307,0.2428471292933155,0.187346357872946,0.1734040607280044
0.1651022626222705,0.4403008793304375,0.6764170960897242,0.6923744440828723,0.2220044792833146,0.5802571547075902,0.7746001881467545,0.4800776003581555,0.3460121540350767,0.245427897788823,0.1905378013542071,0.1765745991098104
0.1580871455389783,0.4335205000529716,0.6769475598666262,0.6997505152402647,0.2182717431877566,0.5773537951057652,0.766698024459078,0.4758991195343978,0.3431153373846784,0.2420824571464984,0.1865269331953249,0.1716968477531857
0.1508744195237624,0.425468799660981,0.676720218247954,0.7078858878403297,0.2150989175065323,0.5732061385317295,0.7536218250235184,0.4688354971894742,0.3383922667590289,0.2376218696233989,0.1812222365980937,0.164989939637827
0.1614464973816816,0.4308719143977115,0.6724007274931797,0.6992081570669271,0.2227510265024263,0.572895064288677,0.7513640639698964,0.4692334477441178,0.3400925721842627,0.2394379659720895,0.1841117867770733,0.1698676909944515
0.1788360833909692,0.4479288060175866,0.6713397999393755,0.6809849224427812,0.2315229563269877,0.580464537536292,0.767826904985889,0.478137591404268,0.3463899996851287,0.2463200152934429,0.1930823306162936,0.1813913785744771
0.1826894575634818,0.449094183705901,0.6692179448317672,0.6782731315760928,0.234695782008212,0.5796350062214848,0.7777986829727186,0.4853007013878526,0.3498220976731006,0.250270821385331,0.1977401129943503,0.1861471861471861
0.1737970556269143,0.4277995550376098,0.6608063049408912,0.6940015186028854,0.2357222844344904,0.5634591455827457,0.7690498588899342,0.4802268318161468,0.3467048710601719,0.24708468744026,0.1932548410747402,0.1793183342479117
0.1638178045647663,0.4083059646148955,0.6545165201576236,0.7095129623603428,0.2348824188129899,0.5495644960597262,0.7543744120413922,0.4718698701686315,0.3414780062344532,0.2416045370547377,0.1869582093414413,0.1717578196451436
0.1635213911668807,0.4035385104354274,0.651333737496211,0.7121162815923636,0.23665546845838,0.5451057652426379,0.7557855126999058,0.4705267870467094,0.3404704178343147,0.2401389154400051,0.185103721913141,0.1707212974818608
0.1717221618417152,0.408411908041106,0.6485298575325856,0.7051740969736414,0.2422545726017171,0.5455205309000415,0.7653809971777987,0.4756504004377456,0.3439654900972952,0.243229465366724,0.1900633975934791,0.1777940369489665
0.1770576030036557,0.4136031359254157,0.6481509548347985,0.6995335719709296,0.2449608062709966,0.547905433430112,0.7726246472248353,0.4804755509127991,0.3460121540350767,0.2461288472567386,0.1938155000646914,0.1832815072251692
0.1662879162138128,0.4037503972878482,0.6493634434677176,0.7104892070723506,0.2391750653228816,0.5438614682704271,0.763593603010348,0.4736109038451973,0.3408167763468623,0.2404575288345122,0.1867425712683831,0.174135723431498
0.1531469222408852,0.3906134124377582,0.6500454683237346,0.7244820479444626,0.2325494587532661,0.5379510576524263,0.7542803386641581,0.4658011242103169,0.3367234484712995,0.2353915758618492,0.1800577910035796,0.1656606304493628
0.1520600731153048,0.386905392520394,0.6482267353743558,0.7269768955418158,0.2331093691675998,0.5348403152218997,0.758137347130762,0.4693329353827787,0.3370698069838471,0.2353278531829478,0.1792814939405701,0.1643192488262911
0.160458452722063,0.3864816188155525,0.6414064868141861,0.722529558520447,0.2413213885778275,0.5299668187474077,0.7719661335841956,0.4773416902949808,0.3416039547844706,0.2398521633849487,0.1848449562254711,0.1716968477531857
0.1616441063136053,0.3782180315711409,0.6345862382540164,0.7261091224644756,0.246080627099664,0.5212567399419329,0.790310442144873,0.484902750833209,0.346232563997607,0.244217166889696,0.1898046319058093,0.1767575147856838
0.1568026874814741,0.3709079351626231,0.6331464080024249,0.7325089489098602,0.2446808510638298,0.5166943177104936,0.7914393226716839,0.4868427597870965,0.3472086652602412,0.2447269483209074,0.1888558243843533,0.1746844704591183
0.1508744195237624,0.3738743510965144,0.6398150954834798,0.7342444950645406,0.2377752892870474,0.5227084197428453,0.7809971777986829,0.4825647913246779,0.345571334110016,0.2430382973300197,0.1863544227368784,0.1705993536979452
0.1580871455389783,0.4031147367305858,0.6551985450136405,0.7153704306323897,0.2317095931317656,0.5475943591870593,0.7797742238946377,0.4864945530517833,0.3494127648855443,0.2472121327980628,0.1916591193341096,0.1768794585695994
0.1712281395119059,0.43309672634813,0.6666414064868141,0.6928083306215426,0.230869727510265,0.569991704686852,0.7949200376293508,0.4951002337959508,0.3566548065115401,0.2538074300643599,0.2004140251002717,0.1879153710139625
0.177551625333465,0.4404068227566478,0.6669445286450439,0.6855407310988176,0.2336692795819335,0.573828287017835,0.7996237064910631,0.4983335820524299,0.3586384961743128,0.2558784171286561,0.2033467028938629,0.1916346564233888
0.1670783519415077,0.4324610657908677,0.6692937253713246,0.6953031782188958,0.2272303098170959,0.5715470759021153,0.7895578551269989,0.4917176540814804,0.3553953210113669,0.2524373924679793,0.1984301548281364,0.1859032985793549
0.1471198498172117,0.4307659709715011,0.6834646862685662,0.7072350580323246,0.2091265397536394,0.580360846121941,0.7702728127939793,0.479580162164851,0.3478384080103278,0.2463837379723443,0.1907534394272652,0.1751722455947808
0.1471198498172117,0.4566161669668396,0.7018793573810246,0.6938930469682179,0.1978350130645763,0.6056615512235588,0.7654750705550329,0.4726657712779187,0.3456343083850247,0.2465111833301471,0.1891145900720231,0.1704774099140296
0.1461318051575931,0.5101175972030935,0.7409063352531071,0.6671005532053368,0.1732922732362822,0.6585441725425135,0.7677328316086547,0.4653534298363428,0.348531125035423,0.2536799847065571,0.1953680941907103,0.1730992012682153
0.128347001284458,0.5421125119186354,0.7774325553197939,0.6604837834906172,0.1424038820455394,0.6991912069680631,0.7739416745061147,0.454608764860966,0.3492868163355269,0.2588733830370229,0.1989045585888644,0.1707212974818608
0.1257780851694496,0.5310943955927534,0.771445892694756,0.667534439744007,0.144923478910041,0.6896515968477811,0.8014111006585136,0.4740585982191713,0.3686828930381939,0.2828012489645065,0.2191745374563333,0.1819401256020974
0.1746862958205711,0.5215594872338171,0.7271900575932101,0.6456231695411649,0.1952220977976857,0.6548112816258813,0.8490122295390404,0.5460379047903299,0.4386787997103183,0.3585037914993946,0.2941303316513564,0.2472410218889092
0.2861377334255509,0.506833350990571,0.6311761139739315,0.5919297103807355,0.3070175438596492,0.5818125259228536,0.9028222013170272,0.6576132915485251,0.5524418275134607,0.4873191868986172,0.4220468365894682,0.368575086884946
0.4535124987649442,0.5033372179256277,0.5003031221582298,0.5017897819720143,0.4665920119447555,0.4906677727084197,0.9114769520225776,0.7801820623787494,0.6976290185459242,0.6532530427579176,0.5845085608315004,0.5305774038168405
0.6322497776899516,0.5201822226930818,0.375265231888451,0.3950536934591603,0.627939529675252,0.4133139776026545,0.8536218250235184,0.8966820872506591,0.8475392802040368,0.8205250748741478,0.746927157458921,0.6991037131882203
0.7800612587688963,0.5566267613094606,0.2879660503182782,0.2953682611996963,0.7514930944382232,0.3714226462048942,0.7483537158984007,0.957369546833806,0.931169117415536,0.9167781813547444,0.8557812567386898,0.8281202365709409
0.9035668412212232,0.5801462019281702,0.2100636556532282,0.2154246664497233,0.8577827547592386,0.3296350062214848,0.6124176857949201,0.9561259513505448,0.9391353632041312,0.9234372012999428,0.8991676370379954,0.9156149015303946
0.9670981128347002,0.5484691174912595,0.1386026068505607,0.196876016921575,0.9318775662560658,0.2652426379095811,0.4954844778927563,0.9113565139531412,0.9047514090494034,0.8693366469126363,0.8720834950618881,0.9329918907383696
0.8654283173599446,0.442525691280856,0.140876023037284,0.3068662544744549,0.8824188129899218,0.2149523019493986,0.4202257761053622,0.7298413172163359,0.725810006612299,0.6913592047409673,0.7135463837495148,0.8056216084385099
0.641240984092481,0.3578768937387435,0.2522734161867233,0.4732617420544527,0.708006718924972,0.2496889257569473,0.2952022577610536,0.4104859971148584,0.4044522812431122,0.4007837889504875,0.4453788760943632,0.5583196146576429
0.3872147021045352,0.3657167072783133,0.452637162776599,0.6087428137542032,0.4646323254945876,0.3906055578598092,0.2067732831608655,0.1548525095756852,0.135992946881199,0.1357293060600267,0.1737611592702808,0.2821169440887751
0.2753680466357079,0.3826676554719779,0.550621400424371,0.661460028202625,0.3514371033967898,0.4659892160929075,0.1871119473189087,0.0947619758245038,0.0657451431090399,0.055247562607532,0.0752145598826929,0.1632217547710505
0.2608437901393143,0.4095772857294204,0.5810851773264626,0.6556025599305781,0.3258678611422173,0.5,0.2981185324553151,0.2014624682883151,0.1470134450077143,0.1136175364812336,0.1096303963427783,0.1704164380220718
0.2385139808319336,0.442525691280856,0.6217035465292513,0.6509382796398742,0.2903135498320269,0.5438614682704271,0.4801505174035748,0.3355718052032035,0.2439938285210491,0.1834575925571911,0.1591408979169362,0.1885250899335406
0.2032407864835491,0.4183705901048838,0.6315550166717186,0.6827204685974617,0.2675438596491228,0.5388842803815844,0.6169332079021637,0.4250609361786798,0.3021190843540414,0.2189511247052826,0.1764781989908138,0.1828547039814645
0.1874320719296512,0.3790655789808242,0.6154895422855412,0.7115739234190259,0.2699701381112355,0.508606387391124,0.6614299153339604,0.4555041536089141,0.3233414150319595,0.2288281399350028,0.1777720274291629,0.1759648801902323
0.1721173797055627,0.3510965144612776,0.6073052440133374,0.7342444950645406,0.2678238148562897,0.4893197843218582,0.676763875823142,0.4571954434661493,0.3250417204571932,0.2261836487605939,0.1713028852374175,0.1659654899091519
0.1636201956328426,0.3428329272168661,0.6079114883297969,0.7431391691072784,0.263437849944009,0.485690584819577,0.706585136406397,0.461821618663881,0.3286942284076955,0.2257057286688332,0.1691465045068357,0.1606609353088226
0.1655962849520798,0.3509905710350672,0.6121551985450137,0.7379325306432368,0.2617581187010078,0.4926379095810867,0.7435559736594543,0.4740088543998408,0.3355269372461349,0.2283502198432422,0.1727692241342131,0.1648070239619535
0.1615453018476435,0.3541688738213793,0.617535616853592,0.7384748888165744,0.2565322881672266,0.4978224802986312,0.765569143932267,0.4816196587573993,0.3387071381340722,0.2298477027974256,0.1728554793634364,0.164989939637827
0.1514672463195336,0.3540629303951689,0.6251894513488937,0.7441154138192863,0.2470138111235535,0.5030070510161759,0.7739416745061147,0.4813709396607472,0.3385811895840549,0.2278722997514815,0.1687152283607194,0.1579172001707213
0.138326252346606,0.3539569869689585,0.6352682631100334,0.7512745417073435,0.234695782008212,0.5098506843633347,0.7756349952963312,0.4781873352235984,0.3360937057212129,0.2239533549990441,0.1620304480959158,0.1471251752941894
0.131903962059085,0.3702722746053606,0.6517884207335556,0.7465017897819719,0.2214445688689809,0.5291372874326006,0.783725305738476,0.4823658160473562,0.3386441638590636,0.2253233925954247,0.1628930003881485,0.1457837936711176
0.143365280110661,0.3937917152240703,0.6598211579266444,0.7281700835231587,0.2219111608809257,0.5461426793861468,0.7974600188146754,0.4906730338755409,0.3446582071223905,0.2304212069075384,0.169232759736059,0.1536491677336748
0.1463294140895168,0.39898294310838,0.6612609881782359,0.7238312181364573,0.2224710712952594,0.5496681874740772,0.80310442144873,0.4942048450480027,0.3474920494977802,0.2327470846874402,0.1719929270712037,0.1568197061154807
0.1389190791423772,0.3856340714058692,0.6573961806608064,0.7347868532378783,0.221257932064203,0.5404396515968477,0.794543744120414,0.4883350743670099,0.3449415913599295,0.2294972280634677,0.1670332513908655,0.1504176574599109
0.1277541744886869,0.3683652929335734,0.6536071536829343,0.7497559388219981,0.2183650615901456,0.5294483616756532,0.7877704609595484,0.4822663284086952,0.3410686734468969,0.2244312750908048,0.1604347263552853,0.1402963233949149
0.1341764647762079,0.3750397287848289,0.6534555926038194,0.7428137542032759,0.2215378872713699,0.53255910410618,0.7974600188146754,0.4868925036064269,0.3431468245221827,0.225833174026636,0.161771682408246,0.1420035363697335
0.1435628890425847,0.3899777518804957,0.6570172779630191,0.7300141013125068,0.2236842105263158,0.5424097884695147,0.8107243650047037,0.4951499776152813,0.3474920494977802,0.2294016440451156,0.1670332513908655,0.1474910066459362
0.1421796265191186,0.3946392626337535,0.6613367687177933,0.7283870267924938,0.2204180664427025,0.5475943591870593,0.8185324553151458,0.4980848629557777,0.348625586447936,0.2312814630727075,0.1693190149652823,0.1502347417840375
0.133386029048513,0.3806547303739802,0.6580782055168234,0.7404273782405901,0.2182717431877566,0.5385732061385318,0.8073377234242708,0.4923643237327762,0.3445322585723732,0.227712993054228,0.1640574459826627,0.1433449179928053
0.1250864539077166,0.3617968005085284,0.6509548347984239,0.7545286907473696,0.2187383351997014,0.5244711737868104,0.8000940733772343,0.4883350743670099,0.3410686734468969,0.2241445230357484,0.1586233665415966,0.1379793915005182
0.1356585317656358,0.3629621781968428,0.6436799030009094,0.7481288643019851,0.2281634938409854,0.5200124429697222,0.805456255879586,0.4917176540814804,0.3426115431846091,0.2258013126871853,0.1610385129598482,0.1423693677214804
0.1522576820472285,0.3782180315711409,0.6419369505910882,0.7312072892938497,0.2371220604703247,0.5263376192451266,0.8188146754468485,0.4990797393423867,0.3479013822853364,0.2298477027974256,0.1672488894639237,0.1518200109749405
0.151170832921648,0.3801250132429282,0.6440588056986966,0.730881874389847,0.2353490108249347,0.5286188303608461,0.8264346190028221,0.5021141123215441,0.3498220976731006,0.2307079589625947,0.1688877388191659,0.1546247180049997
0.1395119059381484,0.3667761415404173,0.643452561382237,0.7441154138192863,0.2301231802911534,0.5217751970136872,0.8191909689557855,0.4953986967119335,0.3449730784974338,0.2253552539348754,0.1623754690128089,0.1457228217791598
0.1299278727398478,0.356181798919377,0.6432252197635647,0.7547456340167046,0.2258305337812617,0.5163832434674409,0.8121354656632173,0.4897279013082624,0.3403444692842974,0.2201299942649588,0.1549575192996075,0.1363941223096152
0.1336824424463986,0.3591482148532683,0.6424674143679903,0.7512745417073435,0.2279768570362075,0.517316466196599,0.8183443085606773,0.4926627866487589,0.3420762618470355,0.2199706875677053,0.1555181782895588,0.1356014877141637
0.1379310344827586,0.3638097256065261,0.6426189754471052,0.7465017897819719,0.2299365434863755,0.5197013687266694,0.8376293508936971,0.4997264089936825,0.3450990270474511,0.221659338558593,0.1585371113123733,0.1405402109627462
0.1359549451635214,0.3564996291980082,0.6388299484692331,0.7513830133420111,0.2313363195222098,0.5134798838656159,0.8476011288805269,0.5066905436999454,0.3472401523977456,0.2232205441916778,0.1601759606676155,0.1434668617767209
0.1250864539077166,0.3356287742345586,0.6322370415277356,0.7679791734461437,0.2303098170959313,0.4988593944421402,0.8410159924741297,0.5030592448888226,0.3442803614723386,0.219237876760339,0.1541380946219864,0.1365160660935309
0.1170832921648058,0.3209026379913126,0.6278417702334042,0.7799110532595727,0.2291899962672639,0.4885939444214019,0.8330197554092191,0.4985325573297517,0.3395258037091848,0.2121965207417319,0.145426316470436,0.1271873666239863
0.119059381484043,0.3173005615001588,0.6237496210973023,0.7806703547022454,0.2326427771556551,0.4840315221899627,0.8404515522107244,0.5026612943341789,0.3399036493592368,0.210539731090295,0.1440462328028637,0.1261508444607036
0.1300266772058096,0.3185718826146837,0.6161715671415581,0.7739451133528582,0.2424412094064949,0.4794690999585234,0.8609595484477893,0.5140526289608516,0.3456972826600334,0.2164978015675779,0.1506878854530556,0.1360282909578684
0.1374370121529493,0.3126390507469011,0.6063200969990906,0.7729688686408505,0.2520530048525569,0.4698257984238905,0.8692380056444026,0.5226583097050193,0.3507037375232218,0.2207353597145224,0.1554750506749471,0.1418815925858179
0.1239996047821361,0.2982307447822862,0.6063200969990906,0.7877210109556351,0.2457073534901082,0.4627747822480298,0.8582314205079962,0.519972143461175,0.3472086652602412,0.2158924361180144,0.1496959503169879,0.1343210779830498
0.1170832921648058,0.2919800826358724,0.6072294634737799,0.7946631955743574,0.2418812989921612,0.4603898797179594,0.8506114769520225,0.5185793165199224,0.3445007714348689,0.2114955712738163,0.1453831888558244,0.1285287482470581
0.1299278727398478,0.315499523254582,0.6141254925735071,0.7755721878728713,0.2437476670399403,0.4765657403566985,0.8611476952022578,0.5243495995622544,0.3474290752227715,0.2130249155674504,0.1478414628886876,0.1332845558197671
0.1401047327339195,0.3427269837906557,0.6257956956653531,0.7560472936327151,0.2413213885778275,0.4978224802986312,0.8776105362182502,0.5343481072476745,0.3539469126861677,0.2182183138979162,0.1551731573726657,0.1417596488019023
0.144748542634127,0.3535332132641169,0.6299636253410124,0.7480203926673175,0.2409481149682717,0.5060141020323518,0.8830667920978362,0.5404665970253196,0.357127113574105,0.2198432422099025,0.1586233665415966,0.1463325406987379
0.1325955933208181,0.3424091535120245,0.6312518945134891,0.7603861590194164,0.2344158268010452,0.5014516798009125,0.8774223894637817,0.5378301746008058,0.3534746056236028,0.2143312304849295,0.1519817138914047,0.1387110542040119
0.1272601521588776,0.334675283398665,0.629887844801455,0.7673283436381387,0.232736095558044,0.4967855661551223,0.8693320790216368,0.5336516937770482,0.3486570735854404,0.2069393997323647,0.1442187432613102,0.1320651179806109
0.1322991799229325,0.3407140586926581,0.6303425280387996,0.7613624037314242,0.2348824188129899,0.5,0.8714016933207902,0.5363378600208925,0.3495072262980572,0.2058561141910406,0.1438737223444171,0.1350527406865435
0.1436616935085466,0.3526856658544336,0.6301151864201273,0.7491051090139929,0.2402948861515491,0.5057030277892991,0.8888052681091251,0.5468338058996169,0.3536950155861331,0.2094564455489709,0.1484021218786389,0.1420645082616913
0.1509732239897243,0.3502489670515944,0.6228402546226129,0.7462848465126369,0.2482269503546099,0.4995852343425964,0.8985888993414863,0.5554394866437845,0.3562139865864794,0.2104441470719429,0.1499115883900461,0.1460886531309066
0.1452425649639363,0.332556414874457,0.6145801758108518,0.7584336695954008,0.2506532288167226,0.4852758191621734,0.8904985888993415,0.5538974282445407,0.3525929657734816,0.2049958580258714,0.1435718290421357,0.1391378574477166
0.143365280110661,0.3214323551223646,0.6080630494089118,0.7651589109447879,0.253826054497947,0.4753214433844877,0.8863593603010348,0.5514102372780182,0.3503573790106741,0.2007582998789269,0.1400784922585931,0.134564965550881
0.1544313802983895,0.3311791503337217,0.6065474386177631,0.7540948042086995,0.2599850690556178,0.4790543343011199,0.8917215428033866,0.5588220663582549,0.3543877326112283,0.2030204549799273,0.1433561909690775,0.1402353515029571
0.1722161841715245,0.3464350037080199,0.603819339193695,0.7365223993925588,0.2700634565136245,0.484653670676068,0.9051740357478834,0.5707108391782322,0.3621650555747977,0.2088192187599566,0.1507310130676672,0.152002926650814
0.179033692322893,0.3466468905604407,0.5987420430433466,0.7327258921791951,0.2763157894736842,0.4813355454168395,0.9092191909689558,0.5791175446450778,0.3682420731131333,0.2142356464665774,0.1569845171863544,0.1601731601731602
0.1734018377630669,0.3322385845958258,0.5927553804183086,0.7431391691072784,0.2774356103023516,0.4701368726669431,0.8973659454374412,0.5796149828383823,0.3702572499134103,0.2169119989804371,0.1586233665415966,0.1609657947686116
0.1795277146527023,0.3307553766288801,0.586996059411943,0.7406443215099252,0.2837812616648003,0.465470759021153,0.8760112888052681,0.5737949559767199,0.3709499669385057,0.2197476581915503,0.1626342347004787,0.1633436985549661
0.1980041497875704,0.357770950312533,0.592149136101849,0.7166720902484001,0.2893803658081374,0.4821650767316466,0.8623706491063029,0.5729990548674327,0.3772159073018672,0.2312496017332568,0.1759175400008625,0.1779159807328821
0.2111451437604979,0.3886004873397605,0.6041224613519248,0.6936761036988828,0.288167226577081,0.5054956449605973,0.8552210724365005,0.5743421379893549,0.3843005132403413,0.2434206334034283,0.1905809289688187,0.1935247850740808
0.2084774231795277,0.3996186036656425,0.6140497120339496,0.6894457099468488,0.2808883911907428,0.5176275404396516,0.8471307619943554,0.5681739043923792,0.3865046128656444,0.2497291786146689,0.1984732824427481,0.1998658618376928
0.1990909989131509,0.3983472825511176,0.6203394968172175,0.6951947065842282,0.2725830533781261,0.5213604313562836,0.8233301975540921,0.5548923046311496,0.383702257627759,0.2524692538074301,0.1997671108810971,0.1975489299432961
0.1947436024108289,0.4021612458946921,0.6264019399818126,0.6956285931228984,0.2667973124300112,0.5273745333886355,0.8047977422389464,0.5437496891011292,0.3806165181523348,0.2538392914038106,0.1998964937249321,0.1948661666971526
0.1968184961960281,0.4136031359254157,0.6329948469233101,0.6886864085041762,0.2637178051511759,0.537432600580672,0.8070555032925681,0.5400686464706761,0.3812147737649171,0.2584591856241636,0.2048130417906586,0.1987073958904945
0.2040312222112439,0.4288589892997138,0.6383752652318884,0.6768630003254149,0.2638111235535648,0.5486312733305683,0.8170272812793979,0.5406158284833109,0.383702257627759,0.2655324029822213,0.2132229266399275,0.2075483202243765
0.2000790435727695,0.4240915351202456,0.6379963625341012,0.6815272806161189,0.2621313923105636,0.546038987971796,0.8176857949200376,0.5389742824454061,0.3830725148776725,0.2670936086153062,0.2150774140682279,0.2076092921163344
0.1822942396996344,0.3998304905180633,0.6342831160957866,0.7036554940882959,0.2560656961552818,0.5316258813770219,0.8030103480714957,0.527085509625429,0.3757360118391637,0.261836487605939,0.2086945271057058,0.1986464239985367
0.1687580278628594,0.3900836953067061,0.6376932403758716,0.7161297320750624,0.2474804031354983,0.5292409788469515,0.7949200376293508,0.5152464806247824,0.3685884316256809,0.2564837825782196,0.2010609393194462,0.1879153710139625
0.1694496591245924,0.4057633223858459,0.6483782964534708,0.7077774162056621,0.2413213885778275,0.5441725425134799,0.8009407337723424,0.5123115952842859,0.3670770490254731,0.2564519212387688,0.2009315564756113,0.1873056520943845
0.1803181503803972,0.4314016315287636,0.6583813276750531,0.6885779368695086,0.2402948861515491,0.5635628369970967,0.8083725305738475,0.5163408446500523,0.370603608425958,0.2605620340279105,0.2067537844481822,0.1946222791293214
0.1783420610611599,0.4395592753469646,0.6657320400121248,0.6855407310988176,0.2347891004106009,0.5725839900456242,0.8078080903104422,0.5149977615281301,0.3707610441134796,0.262155101000446,0.2092120584810454,0.1964514358880556
0.1651022626222705,0.4322491789384468,0.6706577750833587,0.6964963662002386,0.2254572601717059,0.5723766072169225,0.7969896519285042,0.5047007909267274,0.3651878207752133,0.2576945134773466,0.2029585543623582,0.1873056520943845
0.1584823634028258,0.4237737048416145,0.6697484086086694,0.7045232671656362,0.2229376633072042,0.5676068021567814,0.7891815616180621,0.4985325573297517,0.3612204414496678,0.2534888166698528,0.1994652175788157,0.1819401256020974
0.1727102065013338,0.4307659709715011,0.663837526523189,0.6931337455255451,0.2332960059723777,0.5669846536706762,0.7929444967074318,0.5029100134308312,0.3634560282124752,0.2559102784681068,0.2036485961961444,0.1878543991220047
0.1864440272700326,0.437546350248967,0.6580782055168234,0.6820696387894566,0.2433743934303844,0.5663625051845708,0.8041392285983067,0.513654678406208,0.3690607386882458,0.2617727649270375,0.2109371630655108,0.1982805926467898
0.1859500049402233,0.427587668185189,0.651333737496211,0.6874932205228332,0.2472937663307204,0.5569265864786396,0.8111947318908749,0.5172362333980003,0.3707295569759753,0.2644809787803479,0.2135679475568206,0.2032193158953722
0.1720185752396008,0.4022671893209026,0.6439072446195817,0.7081028311096649,0.2452407614781635,0.5394027374533389,0.8009407337723424,0.5090285032084764,0.3661954091753519,0.2600841139361499,0.2076594643550265,0.1951100542649838
0.1652010670882324,0.3891302044708125,0.6397393149439224,0.7186245796724157,0.2445875326614408,0.5300705101617587,0.794543744120414,0.5030095010694922,0.360464750149564,0.254572102211177,0.20037089748566,0.1862691299311017
0.1699436814544017,0.3872232227990252,0.6347377993331312,0.7169975051524026,0.249906681597611,0.5257154707590211,0.8051740357478834,0.5054966920360145,0.3608740829371202,0.2551456063212897,0.2014922154655626,0.1883421742576672
0.1813061950400158,0.3920966204047038,0.6295089421036678,0.7082113027443324,0.2584919746173946,0.5245748652011614,0.816274694261524,0.5119633885489727,0.3647470008501527,0.2595106098260371,0.207012550135852,0.196634351563929
0.1805157593123209,0.3829854857506091,0.6235222794786298,0.7133094695737066,0.2617581187010078,0.5160721692243883,0.82173095014111,0.513754166044869,0.3658805378003086,0.2601159752756006,0.2085220166472592,0.1984635083226632
0.1678687876692026,0.3670939718190486,0.6219308881479235,0.7283870267924938,0.2568122433743934,0.5071547075902115,0.8087488240827846,0.5076854200865543,0.3620076198872761,0.255782833110304,0.2023116401431836,0.1905981342601061
0.1615453018476435,0.3591482148532683,0.6210215216732343,0.7359800412192211,0.2543859649122807,0.5025922853587723,0.7962370649106302,0.5011689797542656,0.3576623949116786,0.2512266615688523,0.1959718807952732,0.1832205353332114
0.1682640055330501,0.3663523678355758,0.6210973022127918,0.7286039700618289,0.257558790593505,0.5062214848610536,0.7994355597365945,0.5031587325274836,0.3590163418243647,0.2521187790734722,0.1973088368482339,0.1845619169562831
0.183973915620986,0.3774764275876681,0.6170051530766899,0.7142857142857143,0.2674505412467338,0.5089174616341767,0.8098777046095955,0.5099238919564244,0.3647155137126484,0.2579175428535016,0.2050286798637167,0.1939515883177855
0.1909890327042782,0.3773704841614577,0.6115489542285542,0.710380735437683,0.2741694662187383,0.5050808793031938,0.8107243650047037,0.5131572402129035,0.3669196133379515,0.2617090422481361,0.2095139517833268,0.1986464239985367
0.1827882620294437,0.3642334993113676,0.6085177326462564,0.7216617854431066,0.2721164613661814,0.4965781833264205,0.7941674506114769,0.5053972043973537,0.3632356182499449,0.2593831644682342,0.2066244016043472,0.1939515883177855
0.1725125975694101,0.3594660451318995,0.612913003940588,0.7296886864085043,0.2645576707726764,0.497200331812526,0.7793979303857008,0.497885887678456,0.3594886488869297,0.2562288918626139,0.2026566610600767,0.1890738369611609
0.1808121727102065,0.3702722746053606,0.6142012731130645,0.7196008243844234,0.2677304964539007,0.5034218166735794,0.78137347130762,0.4991792269810476,0.3603388015995466,0.256547505257121,0.2037348514253676,0.190293274800317
0.1905938148404307,0.3805487869477698,0.6141254925735071,0.7089706041870051,0.2723030981709593,0.5083990045624223,0.7927563499529633,0.5046013032880665,0.3639598224125445,0.2599248072388964,0.2080044852719196,0.1962685202121822
0.1863452228040707,0.3799131263905074,0.6169293725371324,0.7116823950536935,0.2686636804777902,0.5099543757776857,0.7956726246472248,0.5065910560612844,0.3654082307377436,0.2614860128719811,0.2093414413248803,0.1974269861593805
0.1714257484438296,0.3649751032948405,0.6176871779327069,0.7275192537151535,0.2611048898842852,0.5032144338448776,0.7827845719661336,0.4999751280903347,0.3616297742372241,0.2577900974956987,0.2033467028938629,0.1889518931772452
0.1659915028159272,0.3610551965250556,0.6190512276447407,0.7325089489098602,0.2577454273982829,0.5022812111157197,0.7748824082784571,0.4951002337959508,0.3590478289618691,0.2550818836423883,0.199551472808039,0.1832815072251692
0.1752791226163422,0.3763110498993537,0.6228402546226129,0.7196008243844234,0.2597051138484509,0.5122355868934052,0.782972718720602,0.5006217977416306,0.3617557227872414,0.2572803160644873,0.2030448095915815,0.1879763429059203
0.1828870664954056,0.3882826570611293,0.6255683540466809,0.7092960190910077,0.2616648002986189,0.5200124429697222,0.7986829727187205,0.5065910560612844,0.365250795050222,0.2603708659912062,0.2082201233449777,0.1948051948051948
0.1800217369825116,0.386905392520394,0.6267808426796,0.7115739234190259,0.259518477043673,0.520219825798424,0.8024459078080902,0.5082326020991892,0.3657231021127869,0.2608806474224176,0.2085651442618709,0.1957807450765197
0.1680663966011263,0.3773704841614577,0.6291300394058806,0.7230719166937846,0.2524262784621127,0.5171090833678972,0.7855126999059265,0.4987315326070736,0.3599924430869989,0.2563881985598675,0.2026566610600767,0.1882202304737516
0.1623357375753384,0.3801250132429282,0.6354956047287057,0.7248074628484652,0.2458939902948861,0.5228121111571962,0.7688617121354656,0.4899766204049147,0.3556157309738972,0.2522462244312751,0.1979126234527968,0.1818791537101396
0.1683628099990119,0.396864074584172,0.6428463170657774,0.7128755830350363,0.244214259051885,0.5360846121941103,0.7727187206020697,0.4925135551907675,0.3578513177367046,0.2546995475689798,0.2007159184025531,0.1842570574964941
0.1772552119355795,0.4201716283504608,0.6526977872082449,0.6960624796615685,0.2422545726017171,0.5541269182911654,0.7869238005644403,0.5003233348256478,0.3629207468749016,0.2605301726884598,0.2074006986673567,0.1932808975062496
0.1744886868886473,0.4243034219726665,0.657850863898151,0.6955201214882307,0.2377752892870474,0.5597262546661137,0.7876763875823142,0.4999751280903347,0.3636764381750055,0.2618046262664882,0.2096002070125501,0.1959026888604353
0.161150083983796,0.4129674753681533,0.6598969384662019,0.7085367176483349,0.2302164986935423,0.555578598092078,0.7723424270931326,0.4902750833208974,0.3587329575868258,0.2578538201746001,0.2037348514253676,0.1890738369611609
0.1563086651516648,0.4140269096302574,0.6644437708396483,0.7107061503416856,0.225177304964539,0.5592077975943592,0.7623706491063029,0.4836591553499477,0.3546711168487673,0.2537437073854585,0.1991633242765343,0.1825498445216755
0.1674735698053552,0.4307659709715011,0.6677781145801759,0.6960624796615685,0.2283501306457633,0.5696806304437994,0.7688617121354656,0.4887330249216535,0.357032652161592,0.2561333078442617,0.2029585543623582,0.1876105115541735
0.1789348878569311,0.4444326729526433,0.6687632615944226,0.6827204685974617,0.2332026875699888,0.5770427208627126,0.7841956726246472,0.4969904989305079,0.3614408514121981,0.2601478366150512,0.2087376547203174,0.1965124077800134
0.1750815136844185,0.441466257018752,0.6696726280691119,0.6863000325414903,0.230869727510265,0.5762131895479053,0.7904045155221072,0.4980848629557777,0.3611574671746592,0.2597973618810935,0.2083495061888127,0.196634351563929
0.1636201956328426,0.4202775717766712,0.6633070627462868,0.7034385508189608,0.2293766330720418,0.5614890087100788,0.7769520225776105,0.49057354623688,0.3562769608614881,0.255336774357994,0.2021822572993488,0.1890738369611609
0.1588775812666732,0.3995126602394321,0.6519399818126705,0.7167805618830675,0.2340425531914894,0.5435503940273746,0.7695202257761053,0.4847037755558872,0.3524985043609686,0.2514178296055566,0.1967913054728943,0.1831595634412536
0.1665843296116984,0.3996186036656425,0.646180660806305,0.7124416964963661,0.2412280701754386,0.5397138116963915,0.7817497648165569,0.4898273889469233,0.3550174753613149,0.2533295099725993,0.1996808556518739,0.1871227364185111
0.176859994071732,0.4008899247801673,0.6392088511670203,0.7061503416856493,0.2504665920119447,0.535462463708005,0.7966133584195672,0.5000248719096653,0.3597405459869643,0.2570254253488817,0.2044248932591538,0.1935857569660386
0.1780456476632743,0.392414450683335,0.6321612609881783,0.7098383772643453,0.2553191489361702,0.5265450020738283,0.8002822201317028,0.5017659055862309,0.3600239302245033,0.2565156439176703,0.2040798723422607,0.1935857569660386
0.1698448769884399,0.3697425574743087,0.6223097908457109,0.7258921791951405,0.257558790593505,0.508710078805475,0.7882408278457196,0.4937074068546983,0.354261784061211,0.2513541069266552,0.1975676025359037,0.1860862142552283
0.1645094358264993,0.3621146307871596,0.6209457411336768,0.7328343638138627,0.255785740948115,0.5040439651596847,0.7790216368767638,0.4885837934636622,0.3508296860732391,0.2486777544127955,0.1934704791477983,0.1813304066825193
0.1752791226163422,0.3834092594554507,0.6279175507729615,0.7160212604403948,0.2566256065696156,0.519182911654915,0.7841956726246472,0.4907227776948714,0.3539469126861677,0.2522143630918244,0.1981713891404666,0.1874885677702579
0.1882225076573461,0.3967581311579616,0.6275386480751743,0.702028419568283,0.2629712579320642,0.5255080879303193,0.7927563499529633,0.4943540765059941,0.3576309077741743,0.2557509717708532,0.2036054685815327,0.1954149137247728
0.1799229325165497,0.3838330331602923,0.6246589875719916,0.7132009979390389,0.2608249346771183,0.517212774782248,0.7871119473189087,0.4926130428294284,0.3558046537989232,0.2536162620276557,0.2019666192262906,0.1942564477775745
0.1671771564074696,0.3623265176395804,0.6190512276447407,0.7312072892938497,0.2582120194102277,0.502903359601825,0.7743179680150517,0.4831119733373128,0.3490664063729966,0.2460014018989358,0.1928666925432354,0.1830985915492957
0.1583835589368639,0.3531094395592753,0.6192027887238557,0.7407527931445927,0.2540126913027249,0.4984446287847366,0.7621825023518344,0.4772919464756504,0.3452879498724771,0.241795705091442,0.1864406779661017,0.1746234985671605
0.1659915028159272,0.3619027439347388,0.6196574719612004,0.7320750623711899,0.2572788353863382,0.5031107424305268,0.7737535277516462,0.4854001890265134,0.3484681507604144,0.2445039189447524,0.1885539310820718,0.1775501493811353
0.1769587985376939,0.3826676554719779,0.6260988178235829,0.7154789022670571,0.2584919746173946,0.5176275404396516,0.7947318908748824,0.4954981843505944,0.3547026039862716,0.2505257121009367,0.1966187950144478,0.1871837083104688
0.1717221618417152,0.389765865028075,0.635192482570476,0.7146111291897169,0.2504665920119447,0.5272708419742845,0.7963311382878645,0.4975376809431429,0.3560250637614535,0.2525329764863315,0.1984301548281364,0.1886470337174562
0.1626321509732239,0.3843627502913443,0.638299484692331,0.7224210868857793,0.244307577454274,0.5267523849025301,0.7785512699905927,0.4874894294383923,0.3518057873358733,0.2471802714586121,0.1923060335532841,0.1796231937077007
0.1554194249580081,0.3780061447187201,0.6392846317065777,0.7295802147738366,0.2402948861515491,0.5243674823724596,0.7688617121354656,0.4810724767447644,0.3476809723228061,0.2434206334034283,0.1867425712683831,0.1732821169440888
0.160458452722063,0.3844686937175547,0.6400424371021523,0.7236142748671223,0.2421612541993281,0.5279966818747408,0.7758231420507997,0.4853007013878526,0.3492238420605183,0.2455872044860766,0.1898908871350326,0.1779769526248399
0.1715245529097915,0.3956986968958575,0.6395877538648075,0.7116823950536935,0.2476670399402762,0.5331812525922853,0.7851364063969896,0.4901755956822365,0.3531597342485595,0.2502389600458803,0.1954543494199336,0.1849887201999878
0.1714257484438296,0.3960165271744887,0.6398908760230373,0.7116823950536935,0.2473870847331093,0.5335960182496889,0.7873941674506115,0.4918668855394717,0.3546396297112629,0.2514178296055566,0.1975244749212921,0.1872446802024266
0.1590751901985969,0.3801250132429282,0.6379963625341012,0.7265430090031457,0.2427211646136618,0.5245748652011614,0.7719661335841956,0.4852012137491917,0.3497591233980919,0.2471484101191614,0.1926079268555656,0.1807206877629413
0.1572967098112834,0.3734505773916728,0.6345862382540164,0.7309903460245146,0.2440276222471071,0.5188718374118623,0.7625587958607714,0.4816694025767299,0.3478384080103278,0.2455553431466259,0.1899771423642558,0.1777940369489665
0.1666831340776603,0.3828795423243987,0.6341315550166717,0.7209024840004339,0.2487868607689436,0.5232268768145998,0.7690498588899342,0.4857981395811571,0.3510500960357694,0.2487733384311476,0.1935567343770216,0.183342479117127
0.1744886868886473,0.3971819048628032,0.638299484692331,0.7092960190910077,0.249906681597611,0.5330775611779345,0.7840075258701786,0.4927125304680894,0.3549545010863063,0.2527878672019372,0.1990339414326993,0.1903542466922748
0.1658926983499654,0.3951689797648055,0.6435283419217945,0.715045015728387,0.2426278462112729,0.5356698465367068,0.783725305738476,0.4916679102621499,0.3540728612361851,0.2511310775505002,0.1978263682235735,0.1877934272300469
0.148305503408754,0.3811844475050323,0.6470142467414368,0.7318581191018548,0.2321761851437103,0.5312111157196184,0.7714957666980244,0.4842063373625827,0.349003432097988,0.2465111833301471,0.19114158795877,0.1781598683007134
0.1428712577808517,0.3754635024896705,0.6470900272809943,0.7378240590085693,0.2294699514744307,0.5285151389464953,0.7665098777046097,0.479580162164851,0.346138102585094,0.2439304148346396,0.1876913787898391,0.1743186391073715
0.1561110562197411,0.3855281279796588,0.6442103667778115,0.7254582926564703,0.2374953340798806,0.5314184985483202,0.7714957666980244,0.4846042879172263,0.348908970685475,0.2457783725227808,0.1915297364902747,0.1784647277605024
0.1671771564074696,0.3983472825511176,0.6448166110942709,0.7127671114003689,0.2424412094064949,0.5380547490667773,0.7847601128880527,0.4917673979008108,0.3533801442110898,0.2501115146880774,0.1972657092336223,0.1859642704713127
0.1654974804861179,0.3948511494861743,0.643604122461352,0.7154789022670571,0.242347891004106,0.5355661551223558,0.7867356538099718,0.4913197035268368,0.3532541956610724,0.2498884853119225,0.1969638159313408,0.1871227364185111
0.1553206204920462,0.3776883144400889,0.6390572900879055,0.7297971580431717,0.240388204553938,0.5240564081294068,0.7671683913452493,0.4822165845893648,0.346610409647659,0.2435162174217804,0.1885970586966835,0.1774282055972197
0.1541349669005039,0.3706960483102023,0.635040921491361,0.734136023429873,0.2422545726017171,0.5178349232683535,0.7565380997177799,0.4759986071730587,0.3420132875720268,0.2388963232014274,0.1828179583387243,0.1696847753185781
0.1636201956328426,0.3797012395380866,0.6342073355562292,0.7242651046751275,0.2472004479283315,0.5217751970136872,0.760865475070555,0.4773416902949808,0.3438395415472779,0.2411266169629771,0.1858800189761504,0.1721236509968904
0.176859994071732,0.3978175654200656,0.637086996059412,0.7076689445709947,0.2517730496453901,0.53255910410618,0.7698965192850423,0.4831119733373128,0.3487515349979533,0.2471165487797107,0.194333031440031,0.1843790012804097
0.1753779270823041,0.3981353956986968,0.6383752652318884,0.7084282460136675,0.2502799552071669,0.5335960182496889,0.77206020696143,0.4841565935432523,0.3496961491230833,0.2483272796788377,0.1963600293267779,0.1885860618254984
0.1659915028159272,0.3780061447187201,0.6311761139739315,0.7238312181364573,0.2501866368047779,0.5188718374118623,0.764722483537159,0.4800776003581555,0.34632702541012,0.2437392467979354,0.1907103118126536,0.1807206877629413
0.1613476929157198,0.3629621781968428,0.6239769627159746,0.7340275517952056,0.2525195968645017,0.5065325591041062,0.761241768579492,0.4777396408496244,0.3442173871973299,0.2411584783024278,0.1860094018199853,0.1739528077556246
0.1719197707736389,0.3751456722110392,0.6245074264928767,0.7220956719817767,0.2571855169839492,0.5128577353795106,0.7721542803386641,0.4840073620852608,0.3480588179728581,0.2449499776970624,0.1905809289688187,0.1797451374916163
0.1798241280505879,0.389765865028075,0.6289784783267657,0.7102722638030156,0.2581187010078388,0.5231231854002488,0.7921919096895578,0.4934586877580461,0.354356245473724,0.251258522908303,0.1980420062966317,0.1891348088531187
0.1744886868886473,0.3825617120457675,0.6279933313125189,0.7168890335177351,0.2561590145576707,0.5188718374118623,0.7968015051740357,0.4963935730985425,0.3549230139488019,0.2516408589817115,0.1994220899642041,0.1893177245289921
0.1587787768007114,0.3591482148532683,0.6232191573204002,0.7373901724698991,0.2517730496453901,0.5041476565740357,0.7877704609595484,0.4883848181863404,0.3495072262980572,0.2459376792200344,0.1915728641048863,0.178891531004207
0.1522576820472285,0.3520500052971713,0.6231433767808426,0.744657771992624,0.2486935423665547,0.5006221484861054,0.7774223894637817,0.4821170969507038,0.345949179760068,0.2419231504492449,0.1858368913615388,0.1721236509968904
0.1632249777689951,0.373238690539252,0.629887844801455,0.7278446686191561,0.2497200447928332,0.5156574035669846,0.7776105362182503,0.4848032631945481,0.349097893510501,0.2451092843943159,0.1903221632811489,0.1774891774891775
0.1737970556269143,0.3960165271744887,0.6380721430736588,0.7102722638030156,0.2497200447928332,0.5323517212774782,0.7809031044214486,0.489678157488932,0.3525299914984729,0.2490282291467533,0.1960150084098848,0.1853545515517346
0.1715245529097915,0.397923508846276,0.6411033646559564,0.7105976787070181,0.2467338559163867,0.5353587722936541,0.7706491063029162,0.48724071034174,0.3510500960357694,0.2487733384311476,0.1958424979514383,0.1854764953356502
0.1616441063136053,0.3926263375357559,0.6449681721733859,0.7187330513070832,0.2397349757372154,0.5353587722936541,0.7493885230479774,0.4764463015470327,0.3457287697975377,0.2445357802842031,0.1907965670418769,0.178891531004207
0.1610512795178342,0.3943214323551223,0.6466353440436496,0.7181906931337455,0.2384285181037701,0.537432600580672,0.7362182502351834,0.4683380589961697,0.3419818004345225,0.2415408143758363,0.1872601026437228,0.1750503018108652
0.1709317261140203,0.4043860578451106,0.646180660806305,0.7075604729363271,0.2432810750279955,0.5419950228121112,0.7438381937911571,0.4722678207232751,0.3446582071223905,0.2446313643025553,0.1913572260318282,0.1807816596548991
0.1821954352336725,0.4139209662040469,0.6444377083964837,0.6964963662002386,0.2497200447928332,0.5455205309000415,0.7622765757290687,0.483460180072626,0.3507667117982304,0.2506531574587395,0.1985595376719713,0.1892567526370343
0.1782432565951981,0.4104248331391036,0.6449681721733859,0.7005098166829374,0.2475737215378873,0.544068851099129,0.7654750705550329,0.4849524946525395,0.3510500960357694,0.2510673548715988,0.1994652175788157,0.190293274800317
0.1644106313605375,0.3960165271744887,0.6452712943316157,0.7154789022670571,0.2408547965658828,0.5372252177519702,0.7545625587958608,0.4782868228622594,0.346232563997607,0.2461925699356401,0.1928235649286238,0.1818181818181818
0.158284754470902,0.3920966204047038,0.6472415883601091,0.7207940123657663,0.2367487868607689,0.5367067606802157,0.7498588899341486,0.4746057802318063,0.3435876444472433,0.2433250493850761,0.1889852072281882,0.176391683433937
0.1646082402924612,0.4021612458946921,0.6495150045468324,0.7122247532270312,0.2383351997013811,0.543135628369971,0.7588899341486358,0.4803263194548077,0.3476494851853018,0.2469572420824571,0.1932117134601285,0.1813304066825193
0.1725125975694101,0.4082000211886852,0.6478478326765686,0.7048486820696388,0.2430011198208287,0.545002073828287,0.7766698024459077,0.4882853305476795,0.3530337856985422,0.2521825017523737,0.2000258765687669,0.1888299493933296
0.1684616144649738,0.3983472825511176,0.6438314640800243,0.7121162815923636,0.2435610302351624,0.537432600580672,0.7800564440263406,0.4897279013082624,0.3535060927611071,0.2513541069266552,0.2000690041833786,0.1896225839887811
0.1579883410730164,0.3763110498993537,0.6361018490451653,0.7291463282351665,0.2434677118327734,0.5213604313562836,0.7704609595484477,0.4833109486146347,0.3501369690481439,0.2465749060090486,0.1944192866692543,0.1824279007377598
0.1563086651516648,0.3701663311791503,0.6329948469233101,0.7331597787178652,0.2445875326614408,0.5161758606387391,0.7683913452492944,0.4802765756354773,0.3474920494977802,0.2443127509080482,0.1904084185103722,0.1771233461374306
0.166189111747851,0.3823498251933467,0.6341315550166717,0.7215533138084391,0.2485069055617768,0.523019493985898,0.779492003762935,0.4849524946525395,0.3494757391605529,0.2463837379723443,0.1929960753870703,0.1820010974940552
0.1742910779567236,0.3911431295688102,0.6342073355562292,0.7125501681310338,0.2523329600597238,0.5272708419742845,0.7900282220131701,0.4898273889469233,0.3529078371485248,0.2505257121009367,0.197653857765127,0.1882202304737516
0.1722161841715245,0.3888123741921813,0.6341315550166717,0.7149365440937194,0.2513064576334453,0.5261302364164248,0.7894637817497648,0.4910709844301846,0.3536005541736201,0.2506531574587395,0.1978263682235735,0.1883421742576672
0.1646082402924612,0.3766288801779849,0.6312518945134891,0.7253498210218028,0.2495334079880552,0.518145997511406,0.7783631232361241,0.4851017261105308,0.3504518404231871,0.2466067673484993,0.1928235649286238,0.182366928845802
0.1641142179626519,0.3807606738001906,0.6345862382540164,0.7235058032324547,0.2472004479283315,0.5225010369141435,0.7702728127939793,0.482017609312043,0.3485626121729274,0.2447588096603581,0.1898046319058093,0.1780988964087555
0.1754767315482659,0.3959105837482783,0.6367080933616247,0.7094044907256752,0.2513064576334453,0.5314184985483202,0.7799623706491062,0.4895786698502711,0.3532856827985768,0.2489326451284012,0.1951955837322637,0.1837692823608316
0.1848631558146428,0.4059752092382667,0.6367838739011823,0.6992081570669271,0.255692422545726,0.5363956864371631,0.7979303857008466,0.5011192359349351,0.3603073144620423,0.2550818836423883,0.2028291715185233,0.1927321504786293
0.1798241280505879,0.3983472825511176,0.6351167020309184,0.7058249267816465,0.2542926465098917,0.5315221899626711,0.8015992474129822,0.5033079639854748,0.3604017758745553,0.2553049130185433,0.203217320050028,0.1912078531796841
0.1658926983499654,0.3808666172264011,0.6332979690815399,0.7224210868857793,0.2488801791713326,0.5216715055993364,0.784101599247413,0.4944038203253246,0.3549545010863063,0.2505575734403874,0.1973950920774572,0.1826717883055911
0.1607548661199486,0.3695306706218878,0.6290542588663232,0.7309903460245146,0.2490668159761105,0.5132725010369141,0.7711194731890874,0.4894294383922798,0.351774300198369,0.2486777544127955,0.193858627679303,0.1782818120846289
0.1742910779567236,0.3784299184235618,0.6251136708093361,0.7190584662110857,0.2579320642030608,0.5148278722521776,0.7755409219190968,0.4929612495647416,0.354167322648698,0.2523099471101765,0.1982145167550782,0.1847448326321565
0.1831834798932911,0.3865875622417628,0.6242043043346469,0.7100553205336805,0.2625979843225084,0.5182496889257571,0.7852304797742239,0.4983335820524299,0.3577883434616959,0.2563244758809661,0.2031741924354164,0.19187854399122
0.176168362809999,0.3826676554719779,0.6267808426796,0.7158043171710597,0.2577454273982829,0.518145997511406,0.7846660395108184,0.497338705665821,0.3572845492616266,0.2552093290001911,0.2015784706947858,0.1898054996646546
0.163323782234957,0.3718614259985167,0.6289026977872083,0.7284954984271613,0.2503732736095558,0.5143094151804231,0.766698024459078,0.4873899417997314,0.3510815831732737,0.2487096157522462,0.1934704791477983,0.1786476434363758
0.1568026874814741,0.3766288801779849,0.6372385571385268,0.7295802147738366,0.2421612541993281,0.5222936540854417,0.7543744120413922,0.478137591404268,0.3454768726975031,0.2432613267061747,0.1873032302583344,0.1708432412657765
0.1608536705859104,0.4114842674012077,0.6590633525310701,0.7095129623603428,0.2306830907054871,0.5542306097055164,0.7551269990592662,0.4736606476645276,0.3454768726975031,0.2446950869814567,0.1903652908957605,0.1731601731601731
0.1572967098112834,0.4580993749337853,0.6951348893604123,0.6876016921575009,0.2067935796939156,0.6018249688925758,0.7578551269990593,0.4689847286474656,0.3475235366352845,0.2488689224494998,0.1929529477724587,0.1727943418084263
0.1299278727398478,0.487445703994067,0.7371173082752349,0.6876016921575009,0.167973124300112,0.6448569058481959,0.7587958607714017,0.4544097895836443,0.3430838502471741,0.2474988848531192,0.1893733557596929,0.1623071763916834
0.1134275269242169,0.481936645831126,0.7458320703243407,0.699425100336262,0.1548152295632699,0.6481750311074242,0.7714957666980244,0.4604785355419589,0.3527504014610032,0.2602115592939527,0.1977401129943503,0.1618803731479788
0.1571979053453216,0.4943320266977433,0.7211276144286147,0.6690530426293524,0.1906494960806271,0.6372874326005807,0.8112888052681091,0.5179326468686266,0.4097106332063353,0.3240616835531766,0.2596282399620477,0.2152307786110603
0.2631162928564371,0.5153088250874033,0.6548954228554108,0.6002820262501356,0.2815416200074654,0.6022397345499794,0.8689557855126999,0.6176690046261751,0.5151925438458391,0.4466003950806092,0.3826281968344331,0.3278458630571306
0.4052959193755558,0.52230109121729,0.550772961503486,0.5186028853454822,0.4127472937663307,0.5344255495644962,0.8688617121354656,0.7262597622245436,0.6480367769766052,0.6077869113617537,0.5408202872299133,0.4798487897079447
0.564865131903962,0.5364975103294841,0.4386177629584722,0.423798676646057,0.5571108622620381,0.4646412277063459,0.805079962370649,0.828184848032632,0.7926257123964862,0.7814949340470274,0.7082416871522836,0.645692335833181
0.7116885683232882,0.5688102553236571,0.3491209457411336,0.3266080919839462,0.6815976110488988,0.4192243882206553,0.7008466603951081,0.8923543749689101,0.8931326553103058,0.9076976996112918,0.840945357312287,0.7876958722029145
0.8480387313506569,0.615001589151393,0.2775841163989088,0.2281158477058249,0.79003359462486,0.3928867689755288,0.5595484477892756,0.9046410983435308,0.9282723007651376,0.9590263174663864,0.9224996765428904,0.9027498323272972
0.940124493627112,0.620510647314334,0.2109730221279175,0.1747478034493979,0.8745800671892497,0.3499585234342596,0.4340545625587958,0.8746455752872706,0.921722976164237,0.9480978780347928,0.9412170612843404,0.9635997805011888
0.8776800711392153,0.5307765653141222,0.1946044255835101,0.2550168131033734,0.8551698394923479,0.2948983824139362,0.3688617121354656,0.7387952046958166,0.7918070468213736,0.8101701395526668,0.8212360374347695,0.8755563685141151
0.6818496196028061,0.4072465303527915,0.2564413458623825,0.4257511660700726,0.7245240761478163,0.27675238490253,0.2527751646284101,0.4528677311844003,0.4927422148052521,0.5307780539093864,0.5696295337904861,0.6536796536796539
0.4380001976089319,0.3881767136349189,0.429827220369809,0.5692591387352207,0.5027062336692796,0.3860431356283699,0.1649106302916274,0.1912649853255733,0.1941182027141912,0.2221372586503536,0.2689006771035494,0.3678434241814524
0.3058986266179231,0.4086237948935268,0.5457714458926948,0.6314133853997179,0.3688876446435237,0.4753214433844877,0.1494825964252116,0.1087399890563597,0.0773324097106332,0.0774549162046772,0.1126924569802044,0.2047436131943174
0.290979152257682,0.4271638944803474,0.5704759017884208,0.6301117257837076,0.3465845464725644,0.5013479883865616,0.2729068673565381,0.210217380490474,0.15003621020813,0.122379404830179,0.1317117350239358,0.1988293396744101
0.2659816223693311,0.4515308825087403,0.6070779023946651,0.6313049137650504,0.3122433743934304,0.538262131895479,0.4582314205079962,0.3445754365020146,0.2511728958720363,0.1953737335117568,0.1808772156812006,0.2170599353697945
0.2174686295820571,0.4306600275452907,0.629357381024553,0.6686191560906822,0.2756625606569615,0.5433430111986728,0.6015051740357479,0.4321245585236035,0.3108410214427407,0.2306123749442426,0.1934273515331867,0.2005365526492287
0.1950400158087145,0.3922025638309142,0.6191270081842983,0.7006182883176049,0.2713699141470698,0.5175238490253008,0.6756349952963311,0.4701785803113963,0.3371327812588557,0.2412859236602307,0.1927804373140121,0.1866349612828486
0.185455982610414,0.3699544443267294,0.61048802667475,0.7172144484217378,0.2721164613661814,0.5007258399004563,0.7158043273753527,0.4805252947321295,0.3450360527724425,0.2414133690180335,0.1891577176866347,0.178586671544418
0.1785396699930836,0.367729632376311,0.6141254925735071,0.7222041436164442,0.2666106756252333,0.5021775197013687,0.7582314205079962,0.4898771327662538,0.3501054819106395,0.2422099025043012,0.1879070168628973,0.1775501493811353
0.1725125975694101,0.3628562347706324,0.6153379812064262,0.7280616118884911,0.2630645763344532,0.5005184570717545,0.7936970837253057,0.4988310202457345,0.3544821940237413,0.2432613267061747,0.1883382930090137,0.1760868239741479
0.1622369331093765,0.349613306494332,0.6136708093361625,0.7404273782405901,0.2592385218365062,0.4929489838241393,0.8016933207902164,0.4992787146197086,0.3530967599735508,0.2398840247243994,0.1833786173286755,0.1686482531552954
0.146922240885288,0.3319207543171946,0.612913003940588,0.7578913114220631,0.2524262784621127,0.4838241393612609,0.7921919096895578,0.4914191911654977,0.3470827167102239,0.2321417192378767,0.1730279898218829,0.1561490153039449
0.1428712577808517,0.3299078292191969,0.6145043952712943,0.7611454604620892,0.2495334079880552,0.4838241393612609,0.780620884289746,0.4868427597870965,0.3438395415472779,0.2280634677881858,0.1670332513908655,0.1477348942137674
0.1482066989427922,0.3424091535120245,0.6192785692634132,0.7518168998806812,0.2491601343784994,0.493260058067192,0.7858889934148636,0.4926130428294284,0.3479643565603451,0.2308354043203976,0.1697934187260102,0.152002926650814
0.1530481177749234,0.3520500052971713,0.6226129130039406,0.7442238854539538,0.2493467711832774,0.5003110742430527,0.8040451552210724,0.5014674426702482,0.3536950155861331,0.2363792773848212,0.1755293914693578,0.1596853850374977
0.1477126766129829,0.3498251933467527,0.6250378902697787,0.7482373359366525,0.2454273982829414,0.5008295313148071,0.806585136406397,0.5014674426702482,0.3535690670361158,0.2352641305040464,0.1741493078017854,0.1571245655752698
0.1332872245825511,0.3408200021188685,0.6295847226432252,0.7608200455580865,0.2357222844344904,0.4995852343425964,0.7951081843838192,0.4942048450480027,0.3495387134355616,0.2300707321735806,0.1664725924009143,0.1479178098896409
0.1322003754569706,0.3495073630681216,0.6367080933616247,0.7570235383447229,0.230869727510265,0.508606387391124,0.7864534336782689,0.4894294383922798,0.3471456909852325,0.2278404384120308,0.1633674041488765,0.1428571428571428
0.1461318051575931,0.3736624642440936,0.6433010003031222,0.736956285931229,0.2333893243747667,0.5249896308585649,0.7954844778927563,0.495896134905238,0.3521206587109166,0.2324284712929331,0.1697934187260102,0.1501737698920797
0.1550242070941606,0.3841508634389236,0.6439830251591392,0.7266514806378133,0.2371220604703247,0.5305889672335131,0.8115710253998117,0.5050987414813709,0.3578828048742089,0.2377811763206525,0.1767369646784836,0.1610267666605695
0.1466258274874024,0.3671999152452589,0.638299484692331,0.73999349170192,0.2367487868607689,0.5183533803401078,0.8141110065851364,0.5071382380739193,0.3579142920117132,0.237398840247244,0.175745029542416,0.1596853850374977
0.1352633139017883,0.3399724547091852,0.6274628675356169,0.7601692157500815,0.2379619260918253,0.4977187888842804,0.805079962370649,0.5010197482962742,0.3528763500110205,0.2318549671828203,0.1677664208392634,0.1491982196207548
0.1390178836083391,0.3312850937599321,0.6184449833282814,0.7625555917127671,0.2453340798805524,0.4872459560348403,0.8042333019755408,0.5003730786449784,0.3510186088982651,0.2292423373478621,0.1652218915771768,0.1458447655630754
0.1508744195237624,0.3326623583006674,0.6103364655956351,0.7553964638247098,0.2558790593505039,0.4823724595603484,0.8209783631232361,0.5088295279311545,0.3549545010863063,0.2317912445039189,0.17005218441368,0.1515761234071093
0.1537397490366564,0.3286365081046721,0.6052591694452865,0.75583035036338,0.2603583426651736,0.476980506014102,0.8410159924741297,0.5160921255534,0.3595831102994427,0.2341489836232715,0.1731142450511062,0.155783183952198
0.1422784309850805,0.3143341455662676,0.603819339193695,0.7694977763314893,0.2558790593505039,0.4689962671090834,0.8403574788334901,0.513754166044869,0.3577253691866873,0.2315682151277639,0.1690171216630008,0.1508444607036156
0.1287422191483055,0.3102023519440618,0.6112458320703243,0.7790432801822323,0.2448674878686077,0.4720033181252593,0.8313264346190027,0.5073869571705716,0.3520891715734123,0.2263429554578474,0.162246086168974,0.1414547893421133
0.1282481968184962,0.3239749973514143,0.6214004243710215,0.7722095671981777,0.2384285181037701,0.485690584819577,0.8310442144873,0.505994130229319,0.3519317358858906,0.2252915312559739,0.1618579376374692,0.1396866044753368
0.1365477719592925,0.340184341561606,0.6267050621400424,0.759301442672741,0.2390817469204927,0.4973040232268768,0.8447789275634995,0.5125105705616078,0.3567177807865487,0.2294016440451156,0.1659550610255747,0.1457837936711176
0.1419820175871949,0.3482360419535967,0.6282964534707487,0.7522507864193514,0.2406681597611049,0.5022812111157197,0.8583254938852305,0.5219618962343929,0.3626373626373627,0.2341171222838208,0.1716047785396989,0.1536491677336748
0.1341764647762079,0.3369000953490835,0.6261745983631404,0.762338648443432,0.2383351997013811,0.495230194939859,0.8610536218250234,0.5235039546336369,0.3639283352750401,0.2344357356783279,0.1710872471643593,0.1528565331382232
0.1239008003161742,0.3203729208602605,0.6222340103061533,0.7764399609502115,0.2358156028368794,0.4844462878473662,0.853904045155221,0.5193752176292096,0.3608425957996159,0.2304530682469891,0.1651787639625652,0.1443204682641302
