Lead I,Lead II,Lead III,aVR,aVL,aVF,V1,V2,V3,V4,V5,V6
0.19659650694133454,0.1739270472662855,0.4391132224861442,0.8585403198366792,0.3035371830385681,0.24776861371596431,0.8805115535532626,0.8827277514481306,0.8514069264069264,0.7347813176091291,0.1373550480228711,0.12327971403038428
0.183982683982684,0.15742008213221678,0.4334125098970705,0.874447090847227,0.2965054336245472,0.23421082363574736,0.8821682894928063,0.8844918378093733,0.8537518037518037,0.7341874178085098,0.1316693970640198,0.11595174262734584
0.18629646215853113,0.15967469200418716,0.43277909738717346,0.8719802653963934,0.2983166418069465,0.23556660264376905,0.886440924284261,0.8909162717219589,0.8634559884559885,0.7424595936028509,0.13327551315409078,0.1163538873994638
0.1908493805045529,0.16635799983895647,0.43642121931908157,0.8658557332425997,0.30034093330492223,0.24144164501186302,0.8942304897543961,0.8997630331753556,0.8753968253968253,0.7525983116277097,0.1351064854967717,0.11858802502234138
0.1889087923570682,0.17368548192286015,0.454948535233571,0.8631337189520245,0.29277647560196035,0.25330471133205285,0.8995785496294143,0.9071090047393364,0.8856421356421357,0.7611674373223605,0.13369310333750925,0.11715817694369973
0.17704134945514255,0.17159191561317338,0.4760095011876485,0.8709595100374278,0.2772213935648839,0.25929273528414865,0.901002761226566,0.908504476040021,0.8882395382395383,0.7599796377211218,0.12543766663454434,0.1081769436997319
0.1637557844454396,0.16523069490297126,0.49168646080760103,0.8818475671997278,0.26251864479011294,0.2604225511241668,0.9019037930533352,0.9103212216956293,0.8904040404040403,0.7562041318457557,0.11718222993157945,0.10008936550491511
0.16860725481415134,0.1745712215154199,0.49992082343626293,0.8741919020074855,0.2631578947368421,0.2699130041803186,0.9078040982415346,0.9184307530279093,0.900974025974026,0.7621855512662793,0.11538337991069994,0.09883824843610366
0.17651888341543512,0.18536114018842098,0.5041963578780682,0.8639843484178292,0.2673130193905817,0.279064512484465,0.916087777939253,0.9284623486045288,0.9157287157287157,0.7760149323378442,0.116764639748161,0.10035746201966042
0.17286162113748318,0.18673001046783155,0.5146476642913699,0.8653453555631168,0.26124014489665454,0.2836967574285391,0.9229763115826188,0.9379410215903108,0.9295093795093795,0.7861960717770332,0.11750345314959365,0.09982126899016978
0.15823257202567548,0.17658426604396488,0.5257323832145685,0.8790404899625723,0.2470701044108246,0.2805332730764885,0.9279174538584507,0.9427593470247498,0.9364357864357864,0.788189878250541,0.11136808968552248,0.09294012511170689
0.14726078519181968,0.16756582655608346,0.5312747426761679,0.8900986730180334,0.23737481355209886,0.276126991300418,0.931143729109141,0.9464454976303317,0.942135642135642,0.7894200992661097,0.1033053869133661,0.08512064343163539
0.1443499029705926,0.17038408889604637,0.5429928741092637,0.8902687989111944,0.2313019390581717,0.2823409784205175,0.9370730998401395,0.9527909426013691,0.9504329004329004,0.7937470835277649,0.09736275738010343,0.08007149240393209
0.14554411106135243,0.18721314115468232,0.5735550277117974,0.8806566859476013,0.22192627317281055,0.3050502768048808,0.9473623019909897,0.9632964718272775,0.9652236652236652,0.8062189793407714,0.09675243326587646,0.07935656836461126
0.1438274369308852,0.19929140832595216,0.6011084718923199,0.8752977203130318,0.21137864905177925,0.3233532934131736,0.9541055079203605,0.9715376513954713,0.9769119769119768,0.8122428201756247,0.09344383412033022,0.07587131367292226
0.12807881773399013,0.1887430549963765,0.6136183689627871,0.889843484178292,0.19603665033027914,0.3204157722291266,0.9562272925446883,0.9738283307003686,0.978102453102453,0.8074916217706699,0.08200828755902476,0.06318141197497766
0.11173309449171519,0.17988565907077864,0.630720506730008,0.9037938074174889,0.1785638184530151,0.3203027906451248,0.9577387007702369,0.975144813059505,0.9797619047619047,0.8035888516523141,0.07092608653753493,0.05129579982126899
0.1142707866845798,0.18721314115468232,0.6399049881235156,0.8984348417829194,0.1772853185595568,0.32877640944526043,0.9616044179625054,0.9794628751974723,0.9866883116883116,0.8066007720697409,0.06588288201471203,0.04848078641644325
0.11516644275264964,0.19655366776713099,0.6563737133808394,0.8930758761483498,0.1723844023012998,0.3410914021014574,0.9673593954367098,0.9852817272248551,0.9945526695526695,0.8133033555338736,0.06247791590376152,0.04865951742627346
0.10852366024779818,0.1960705370802802,0.6695170229612035,0.8970738346376319,0.163221819731515,0.3454976838775279,0.9718064234849586,0.988493944181148,0.9987012987012986,0.8140245195774827,0.05782017924255564,0.04486148346738159
0.09911927153306463,0.19357436186488444,0.684560570071259,0.9037087444709085,0.15139569571702535,0.34911309456558576,0.9708763261153903,0.9871774618220116,0.9966450216450216,0.8068977219700506,0.04943625325238507,0.036327077747989274
0.08650544857441408,0.1876157500603913,0.6994457640538401,0.9140864239537259,0.13743873854677177,0.3502429104056039,0.968086034006685,0.985202738283307,0.9956349206349205,0.8045221227675732,0.044264559442356494,0.02935656836461126
0.0858337065233617,0.1910781866494887,0.7078384798099763,0.9126403538618577,0.13413594715533775,0.3556660264376907,0.9696265077750328,0.9847024749868353,0.9964285714285713,0.805540236711492,0.04214448620346278,0.028194816800714926
0.10098522167487685,0.2080682824704083,0.7091053048297705,0.8950323239197007,0.14457702961858088,0.3679810190938877,0.9725330620549338,0.9874934175882042,1.0,0.8090612141008782,0.04615977642864026,0.0354781054512958
0.10053739364084191,0.21072550124808764,0.7151227236737926,0.893841442667574,0.14223311314724055,0.3720483561179527,0.9735503560528993,0.9869141653501844,0.9992424242424243,0.8076188860136598,0.04686646750827151,0.03695263628239499
0.09217793700552321,0.2034785409453257,0.7187648456057009,0.9025178632187819,0.1349882804176433,0.3682069822618913,0.9670106089231217,0.9794365455502895,0.9917748917748916,0.8020192593221058,0.043654235328129516,0.033065236818588035
0.09016271085236602,0.20219019244705697,0.7205067300079178,0.9043041850969719,0.1329639889196676,0.3679810190938877,0.9590757157389914,0.9705371248025276,0.9811688311688311,0.7922623340262165,0.039606822781150616,0.029267202859696164
0.09150619495447082,0.21048393590466222,0.7341250989707048,0.8992004083021437,0.12934157255486892,0.37860128799005754,0.9537567214067723,0.9655081621906266,0.976118326118326,0.7914563271539474,0.04140567280203014,0.03208221626452189
0.10494103597551872,0.22666881391416377,0.7372921615201902,0.882953385505274,0.13786490517792457,0.3911422438142582,0.950414183984886,0.9611901000526593,0.9724747474747475,0.7924320196835363,0.048247727345732544,0.04226988382484361
0.11061352440662786,0.22884290200499235,0.729532858273951,0.8785301122830896,0.14457702961858088,0.3898994463902383,0.9466356634210145,0.9540021063717746,0.9644660894660895,0.7920078055402368,0.05791654620795991,0.054334226988382486
0.11725630691147931,0.2239310733553426,0.7057798891528109,0.877339231030963,0.15725548689537608,0.3780363800700485,0.9337014968754542,0.9403633491311215,0.9466450216450216,0.7822084588300176,0.06283126144357715,0.05822162645218946
0.12121212121212122,0.21974394073596906,0.6891528107680127,0.877339231030963,0.1656722778606435,0.36911083493390573,0.918703676791164,0.9241179568193786,0.9258658008658008,0.7677003351291732,0.06816356686261282,0.06291331546023236
0.12875055978504255,0.226990901038731,0.6874109263657958,0.8691731881592378,0.17163861069678243,0.37363009829397803,0.9077169016131376,0.911690363349131,0.9097402597402597,0.7639248292538074,0.0804342937907552,0.07654155495978553
0.15024630541871922,0.23327159996779132,0.6541567695961996,0.8536917318815924,0.19816748348604304,0.36617331374985873,0.898968173230635,0.9014481305950499,0.8969336219336219,0.7637551435964876,0.09649545469146509,0.09566577301161752
0.1646514405135095,0.2354456880586199,0.6278701504354711,0.8442497448111603,0.21723844023012998,0.3582646028697322,0.8909460834181079,0.8909426013691416,0.8823232323232323,0.7580706740762738,0.10844495840159327,0.10960679177837356
0.16211374832064487,0.22731298816329817,0.6174188440221696,0.8500340251786322,0.2190496484125293,0.3487741498135804,0.876413312018602,0.8742496050552921,0.8590909090909091,0.7435201289610998,0.11435546561305451,0.1139857015192136
0.16689058068368415,0.22320637732506646,0.5990498812351545,0.8494385845525689,0.22863839761346685,0.3393966783414304,0.8624327859322772,0.8581621906266456,0.8371572871572871,0.731217918805413,0.12061931836433139,0.11943699731903486
0.18054933572174953,0.22876238022385054,0.5811559778305623,0.8388057162300103,0.24430002130833153,0.33691108349339055,0.8522598459526232,0.8454713006845709,0.8199494949494949,0.7211216221948841,0.12970993543413317,0.12837354781054514
0.20368711748022092,0.23753925436830667,0.5491686460807601,0.8209424974481117,0.2716812273598977,0.33160094904530557,0.8466211306496149,0.8377303844128489,0.8082251082251082,0.7162431595469394,0.14490379364620473,0.14673815907059876
0.2198089267054784,0.23737821080602306,0.5146476642913699,0.8118407621640015,0.2948007670999361,0.31917297480510676,0.8400813835198372,0.8295155344918378,0.796969696969697,0.710219318712086,0.15823455719379398,0.1609472743521001
0.21301686818928195,0.22449472582333518,0.5037212984956453,0.8224736304865602,0.2936288088642659,0.3062930742289006,0.8291527394274087,0.8175882043180621,0.7785714285714286,0.6969838374411403,0.16170376794834732,0.162153708668454
0.2139871622630243,0.21821402689427488,0.48946951702296126,0.8252807077237156,0.2990624334114639,0.2968026211727488,0.8194448481325389,0.8061874670879411,0.7606421356421356,0.683493827684215,0.16356686261282963,0.16264521894548703
0.22062994476787579,0.22207907238908126,0.48281868566904207,0.8194964273562437,0.30609418282548473,0.29714156592475427,0.8153175410550793,0.7993944181147973,0.7516594516594516,0.6773851440207017,0.1696058591114966,0.16952636282394995
0.22801910732945216,0.2274740317255818,0.47790973871733966,0.8123511398434842,0.3130193905817174,0.2991752344367868,0.8181078331637843,0.8006582411795682,0.7535714285714286,0.6815000212107072,0.17609456811538338,0.17685433422698837
0.22869084938050455,0.2268298574764474,0.4750593824228029,0.8123511398434842,0.31440443213296393,0.2977064738447633,0.819735503560529,0.8020537124802527,0.7554112554112554,0.6837059347558648,0.17802190742346857,0.1794012511170688
0.21965965069413343,0.21620098236572993,0.4734758511480603,0.8230690711126235,0.30854464095461326,0.28968478138063497,0.8163929661386427,0.7987888362295945,0.7509018759018758,0.6786577864506003,0.17407086184189394,0.17412868632707776
0.2178683385579937,0.21161124084064742,0.46793349168646087,0.8265566519224227,0.30907734924355423,0.2844876285165518,0.812614445574771,0.795734597156398,0.7458874458874458,0.6727612098587367,0.17153319841958178,0.17046470062555855
0.23585609792506343,0.2195828971736855,0.4456057007125892,0.8120959510037429,0.3294268058810995,0.2821150152525138,0.8101148088940561,0.7951816745655608,0.7429292929292929,0.671700674500488,0.1772830940220359,0.17806076854334227
0.24869383490073144,0.22280376841935748,0.42454473475851157,0.8030792786662131,0.34572767952269334,0.27680488080442883,0.8103473332364481,0.7954713006845708,0.7418109668109668,0.6749247019895644,0.1871767691368732,0.1900804289544236
0.24906702492909386,0.2199855060793945,0.4182106096595408,0.80435522286492,0.34807159599403364,0.272624562196362,0.8100566778084581,0.7933122696155872,0.7365079365079364,0.6707249819708989,0.1921878513378947,0.19629133154602324
0.24145394835050007,0.21000080521781142,0.41488519398258117,0.8139673358285131,0.3437033880247176,0.2644898881482318,0.8017729981107398,0.7849394418114797,0.7238816738816739,0.6582530861578926,0.18846166200893,0.1906166219839142
0.2412300343334826,0.2047668894435945,0.4050673000791767,0.8168594760122492,0.3468996377583635,0.25725906677211613,0.7955820374945501,0.7788046340179042,0.7152958152958153,0.6507869172358207,0.18547428608139796,0.1854781054512958
0.24600686669652186,0.2069409775344231,0.3990498812351545,0.8129465804695475,0.35233326230556145,0.2566941588521071,0.7965412004069176,0.7794365455502895,0.7155122655122655,0.6504051245068512,0.18775497092929877,0.18543342269883825
0.2530228392297358,0.21177228440293103,0.3938242280285037,0.8064817965294319,0.35915192840400595,0.2581629194441306,0.8013951460543526,0.7834913112164297,0.720923520923521,0.6561320154413949,0.1950788603000225,0.19365504915102771
0.25279892521271835,0.20822932603269184,0.38733174980205864,0.8084382443007827,0.3611762199019816,0.25330471133205285,0.8014823426827496,0.784044233807267,0.7224386724386723,0.6565986509990244,0.19761652372233465,0.19865951742627347
0.24488729661143455,0.197358885578549,0.38258115597783054,0.8187308608370194,0.35702109524824205,0.24404022144390466,0.7980235430896672,0.7815955766192733,0.7168109668109667,0.6492173249056125,0.1939224567151714,0.19593386952636282
0.23891625615763545,0.18503905306385376,0.371021377672209,0.8285981626403539,0.3567014702748775,0.23127330245170036,0.79529138206656,0.7783043707214323,0.7117243867243866,0.645017604886947,0.19083871382223508,0.19195710455764076
0.24735035079862666,0.18608583621869715,0.35534441805225664,0.8232391970057843,0.3679948860004262,0.22641509433962267,0.7964540037785206,0.7800684570826751,0.7142857142857143,0.6490476392482926,0.1936012334971572,0.19624664879356568
0.2572772055530676,0.19212496980433208,0.346159936658749,0.8143926505614154,0.3781163434903047,0.22731894701163707,0.8017148670251417,0.785492364402317,0.722077922077922,0.6564289653417046,0.19858019337637725,0.20281501340482572
0.2562322734736528,0.18898462033980193,0.34220110847189233,0.8166893501190882,0.37875559343703386,0.22381651790758106,0.8038075861066706,0.7883359662980516,0.7251803751803753,0.6585500360582023,0.19896566123799428,0.20317247542448613
0.24891774891774893,0.18463644415814479,0.3491686460807602,0.8231541340592039,0.37119113573407203,0.2231386284035702,0.7999128033716029,0.7851500789889415,0.7195165945165946,0.6516777669367497,0.1934727442099515,0.19651474530831098
0.24600686669652186,0.18342861744101777,0.35312747426761687,0.8254508336168767,0.3677818026848498,0.22381651790758106,0.7952623165237611,0.7812796208530806,0.7145743145743145,0.6481992109616935,0.1886543959397385,0.19025915996425377
0.251530079116286,0.1903534906192125,0.35486935866983377,0.8185607349438585,0.37119113573407203,0.22923963393966784,0.8002615898851911,0.7857556608741443,0.7205266955266956,0.654095787553557,0.18968231023738397,0.1893655049151028
0.26406926406926406,0.20066027860536279,0.348535233570863,0.8060564817965294,0.38227146814404434,0.23421082363574736,0.8058421741026014,0.7908636124275934,0.7267316017316017,0.6599923641454206,0.19318364331373872,0.1934763181411975
0.26100910583669207,0.19985506079394474,0.35344418052256527,0.8081830554610412,0.37832942680588105,0.2353406394757654,0.804737683476239,0.7916008425487098,0.728932178932179,0.6643617698214058,0.1945970254730012,0.19463806970509384
0.2496641289744738,0.19059505596263793,0.3593032462391133,0.8195814903028241,0.36831451097379075,0.2309343576996949,0.8011626217119605,0.7883096366508688,0.7236291486291486,0.6587197217155221,0.19000353345539817,0.19003574620196603
0.2477981788326616,0.18689105403011516,0.3561361836896279,0.8225586934331406,0.3679948860004262,0.22731894701163707,0.7998546722860049,0.7852553975776725,0.7185425685425686,0.6512111313791202,0.18647007805724197,0.18690795352993744
0.25862068965517243,0.19470166680086964,0.3483768804433887,0.8122660768969038,0.3784359684636693,0.2299175234436787,0.8002615898851911,0.7859136387572406,0.7214646464646464,0.6528231451236585,0.18871864058334137,0.18900804289544237
0.2665323182564562,0.20331749738304214,0.348535233570863,0.803249404559374,0.38397613466865543,0.23601852897977632,0.8036913239354745,0.7902580305423907,0.729076479076479,0.6626224918338778,0.1952394719090296,0.1945040214477212
0.2674279743245261,0.20001610435622838,0.3401425178147268,0.8044402858115006,0.38749200937566586,0.23070839453169134,0.8056677808458073,0.7923907319641917,0.7306637806637807,0.665973783565944,0.19646012013748354,0.19624664879356568
0.2598895357516047,0.19123923021177233,0.33903404592240693,0.81337189520245,0.3824845514596207,0.22426844424358824,0.8016276703967447,0.7895208004212744,0.726190476190476,0.6585076146438723,0.19083871382223508,0.19258266309204644
0.25361994327511567,0.18552218375070453,0.34093428345209814,0.819921742089146,0.3772640102279991,0.22087899672353406,0.7975875599476819,0.7848867825171143,0.7189393939393939,0.6498536461205617,0.18502457357617808,0.18543342269883825
0.25936706971189727,0.19019244705692895,0.33792557403008705,0.8142225246682546,0.3823780098018325,0.2231386284035702,0.7995349513152158,0.7862559241706161,0.7196608946608947,0.6517201883510797,0.18743374771128457,0.18824843610366396
0.2699656665173906,0.19751992914083263,0.32984956452889946,0.80435522286492,0.39271255060728744,0.22539826008360636,0.8023543089667199,0.7898894154818326,0.7248196248196247,0.6579561362575829,0.19292666473932737,0.1938337801608579
0.2742200328407225,0.1979225380465416,0.3216152019002375,0.8017182715209255,0.39846580012784993,0.22268670206756302,0.8040401104490625,0.7908899420747761,0.7255772005772005,0.6578288720145931,0.1933121326009444,0.19566577301161753
0.26518883415435135,0.18640792334326436,0.3181314330958037,0.8128615175229671,0.3932452588962284,0.21342221217941473,0.8006394419415782,0.7865455502896261,0.7183621933621933,0.649599117634582,0.18769072628569594,0.1878909740840036
0.25705329153605017,0.17883887591593525,0.3203483768804434,0.821537938074175,0.3866396761133603,0.2089029488193424,0.7962505449789276,0.7831226961558715,0.7145382395382396,0.6454418190302466,0.18486396196717098,0.18516532618409293
0.2639946260635916,0.18970931637007807,0.32715756136183693,0.8118407621640015,0.3893032175580652,0.21895830979550335,0.7968899869205057,0.7844391785150079,0.7151875901875901,0.648750689347983,0.18740162538948316,0.1892314566577301
0.27459322286908494,0.2000966261373702,0.3250989707046715,0.8002722014290575,0.39761346686554444,0.2255112416676082,0.7987792472024415,0.7870194839389153,0.7182539682539683,0.6519322954227295,0.19128842632745496,0.193923145665773
0.27660844902224213,0.20122393107335537,0.323040380047506,0.7985709424974482,0.39974430002130834,0.2255112416676082,0.8011916872547595,0.7884412848867826,0.7184343434343433,0.6491324820769525,0.19077446917863222,0.19343163538873995
0.2682489923869234,0.18970931637007807,0.3181314330958037,0.8093739367131677,0.39548263370978054,0.21568184385945088,0.7958145618369423,0.7842548709847288,0.7134920634920635,0.6415814703262207,0.18528155215058945,0.18614834673815905
0.2657113001940588,0.18560270553184635,0.3154394299287411,0.813031643416128,0.3945237587896867,0.2118404700033894,0.7923557622438598,0.7804107424960506,0.708080808080808,0.6369575361642558,0.18255115479746875,0.18181411974977657
0.26608449022242125,0.19446010145744422,0.33206650831353923,0.8081830554610412,0.389196675900277,0.22392949949158286,0.7943031536113937,0.7818852027382833,0.7099567099567099,0.6406481992109617,0.18467122803636246,0.18436103663985703
0.27713091506194953,0.20726306465899025,0.33380839271575613,0.7950833616876489,0.3965480502876625,0.23353293413173654,0.7970643801772999,0.7848341232227488,0.713997113997114,0.645950876002206,0.18920047541036264,0.1898123324396783
0.27720555306762207,0.20814880425155002,0.33539192399049883,0.7945729840081661,0.39601534199872146,0.23477573155575637,0.7985757884028485,0.7853080568720379,0.713924963924964,0.6457387689305563,0.19077446917863222,0.19200178731009832
0.2658605762054038,0.19454062323858604,0.33269992082343625,0.8081830554610412,0.3887705092691242,0.22426844424358824,0.7944775468681877,0.7814375987361769,0.7079365079365079,0.6401391422390023,0.18656644502264624,0.1884271671134942
0.2602627257799671,0.1859247926564136,0.3274742676167854,0.8160088465464445,0.38653313445557214,0.21635973336346173,0.7904955675047232,0.7781990521327014,0.7034992784992785,0.6363636363636364,0.18489608428897242,0.1866845397676497
0.2715330646365129,0.19655366776713099,0.3246239113222486,0.8039299081320178,0.3955891753675687,0.22279968365156474,0.7916581892166836,0.7802527646129542,0.7050505050505049,0.6365333220209562,0.18563489769040506,0.18856121537086684
0.2852664576802508,0.2104034141235204,0.3227236737925574,0.7887887036406942,0.40603025783081187,0.23183821037170937,0.7953495131521582,0.7820695102685624,0.7081168831168831,0.6393755567810631,0.18720889145867464,0.1908847184986595
0.27578743095984476,0.2075851517835575,0.33729216152019004,0.7956788023137121,0.39441721713189853,0.23500169472376004,0.7959017584653393,0.7823591363875725,0.7076118326118326,0.639460399609723,0.1863415887700363,0.18909740840035744
0.26153157187639947,0.19405749255173524,0.34093428345209814,0.8109901326981968,0.3829107180907735,0.22686702067562986,0.7922976311582619,0.7784623486045287,0.7019480519480519,0.6329275018029101,0.18216568693585172,0.18360142984807862
0.26212867592177935,0.19019244705692895,0.33206650831353923,0.8126913916298061,0.38632005113999573,0.22099197830753586,0.7886644383083854,0.7760400210637177,0.6990259740259741,0.6286005175412549,0.17927467797372396,0.18100983020554065
0.26630840423943875,0.1991303647636686,0.340775930324624,0.8055461041170466,0.3864265927977839,0.23036944977968588,0.7909896817323063,0.7772248551869405,0.6989898989898989,0.629364102999194,0.18145899585622047,0.18570151921358355
0.27630989699955216,0.20895402206296804,0.3387173396674585,0.7946580469547465,0.39431067547411036,0.23647045531578353,0.7950007266385699,0.7813586097946288,0.7043650793650793,0.6352606795910576,0.1871125244932704,0.19249329758713138
0.2791461412151067,0.20331749738304214,0.3217735550277118,0.796019054100034,0.4019816748348604,0.2265280759236244,0.7954076442377561,0.7812006319115323,0.7047619047619048,0.6344122513044586,0.18814043879091583,0.19365504915102771
0.26877145842663086,0.19011192527578713,0.31781472684085516,0.808863559033685,0.3959088003409333,0.21590780702745455,0.7924720244150559,0.7783307003686151,0.6997835497835497,0.6289823102702244,0.18402878160033406,0.18780160857908848
0.2649649201373339,0.1859247926564136,0.31765637371338085,0.8132868322558694,0.3932452588962284,0.21285730425940572,0.7893329457927626,0.775724065297525,0.6984126984126984,0.625800704195478,0.18190870836144035,0.18516532618409293
0.27190625466487534,0.19212496980433208,0.3151227236737925,0.8060564817965294,0.39899850841679096,0.2162467517794599,0.7897398633919488,0.7763823064770932,0.7003246753246752,0.6288974674415646,0.18335421284250425,0.1878909740840036
0.2769816390506046,0.20082132216764634,0.3216152019002375,0.7985709424974482,0.4004900916258257,0.22472037057959554,0.7942740880685947,0.7807266982622433,0.7047619047619048,0.6340728799898189,0.18814043879091583,0.19302949061662197
0.27511568890879234,0.19840566873339238,0.32066508313539194,0.8008676420551208,0.3994246750479437,0.22268670206756302,0.7931986629850313,0.780647709320695,0.7038239538239538,0.6325032876596106,0.1871767691368732,0.19244861483467382
0.267875802358561,0.18882357677751832,0.317181314330958,0.8100544402858115,0.39548263370978054,0.2147779911874364,0.7894201424211597,0.776119010005266,0.6982323232323232,0.6267339753107369,0.18255115479746875,0.18806970509383378
0.2624272279444693,0.18447540059586115,0.32019002375296923,0.8154984688669616,0.39058171745152354,0.21274432267540389,0.7874146199680279,0.7733807266982622,0.6948773448773449,0.6227887837780512,0.18007773601875943,0.18744414655942807
0.26914464845499325,0.19437957967630248,0.3254156769596199,0.8064817965294319,0.3936714255273812,0.22155688622754488,0.7889260281935765,0.7750394944707741,0.6964285714285714,0.6260976540957877,0.1824226655102631,0.190437890974084
0.2797432452604866,0.2029148884773331,0.31971496437054636,0.7958489282068731,0.4031536330705306,0.2255112416676082,0.7922104345298648,0.778436018957346,0.7013347763347763,0.6307215882577526,0.18621309948283063,0.1928507596067918
0.2722048066875653,0.19631210242370561,0.3228820269200317,0.8036747192922763,0.3966545919454506,0.22200881256355218,0.792413893329458,0.7790679304897314,0.7023088023088022,0.6302125312857931,0.18512094054158235,0.19159964253798034
0.2600388117629497,0.18254287784845802,0.32145684877276326,0.8178802313712148,0.38845088429575964,0.2118404700033894,0.7887807004795815,0.7759347024749869,0.6962481962481962,0.6226615195350614,0.1798528797661495,0.1865058087578195
0.2622779519331243,0.1785973105725099,0.3091053048297704,0.8187308608370194,0.3942041338163222,0.20472263021127557,0.7862229327132684,0.7725645076355977,0.6915945165945165,0.6180375853730964,0.17782917349266006,0.1844504021447721
0.26712942230183606,0.18664948868668974,0.3144893111638955,0.8116706362708405,0.3958022586831451,0.21217941475539487,0.7873564888824299,0.7738546603475513,0.6930014430014431,0.6200313918466042,0.18043108155857507,0.18579088471849867
0.2784743991640543,0.20106288751107176,0.31876484560570073,0.797635250085063,0.4025143831238014,0.22381651790758106,0.7923557622438598,0.7782253817798841,0.7007215007215007,0.6288126246129047,0.1851851851851852,0.19119749776586237
0.27489177489177485,0.19921088654481034,0.32256532066508314,0.8006124532153794,0.3986788834434264,0.22392949949158286,0.792501089957855,0.7786466561348078,0.7022727272727273,0.6305094811861028,0.18573126465580933,0.19276139410187668
0.2620540379161069,0.18656896690554792,0.3252573238321458,0.8145627764545764,0.3885574259535478,0.21602078861145635,0.7885191105943903,0.7746972090573986,0.6955627705627705,0.6231705765070208,0.1813305065690148,0.18637176050044682
0.25645618749067023,0.18350913922215958,0.33095803642121935,0.8194113644096631,0.3826976347751971,0.21590780702745455,0.7859613428280773,0.7713796735123749,0.6908730158730159,0.6186314851737157,0.17879284314670263,0.18248436103663984
0.26153157187639947,0.18809888074724218,0.3293745051464767,0.8141374617216741,0.38685275942893665,0.21861936504349788,0.787385554425229,0.7735387045813585,0.6943001443001442,0.6227039409493913,0.18287237801548298,0.18811438784629134
0.27257799671592775,0.1956679281745712,0.32050673000791763,0.8038448451854373,0.3977200085233326,0.2206530335555304,0.7919779101874728,0.7776987888362297,0.6993145743145742,0.6283884104696051,0.18704827984966754,0.193923145665773
0.2722794446932378,0.19542636283114587,0.32082343626286625,0.8041000340251787,0.397400383549968,0.2206530335555304,0.7915128615026886,0.7783570300157977,0.7013708513708513,0.6295337886565139,0.18720889145867464,0.19320822162645218
0.25742648156441256,0.18222079072389083,0.3265241488519398,0.8195814903028241,0.384828467930961,0.21342221217941473,0.7878506031100131,0.773117430226435,0.6952380952380952,0.6224069910490816,0.1808486717419935,0.18507596067917784
0.2533213912524257,0.17714791851195746,0.3250989707046715,0.8245151412044914,0.3824845514596207,0.2093548751553497,0.7860194739136753,0.7714849921011059,0.6918831168831169,0.6190556993170153,0.17860010921589412,0.18185880250223413
0.26287505597850425,0.18383122634672683,0.3181314330958037,0.815583531813542,0.39154059237161726,0.21161450683538585,0.7874727510536259,0.7734860452869932,0.6942279942279942,0.6203707631612438,0.18222993157945458,0.18525469168900804
0.27078668457978805,0.19381592720830987,0.32082343626286625,0.8058012929567882,0.3963349669720861,0.21952321771551236,0.7903793053335271,0.7764349657714587,0.6985930735930735,0.6246977474228992,0.18756223699849028,0.19200178731009832
0.26362143603522914,0.19212496980433208,0.33254156769596205,0.8107349438584552,0.3872789260600895,0.2225737204835612,0.7905246330475222,0.7765402843601895,0.6974025974025975,0.6243159546939295,0.18704827984966754,0.19280607685433424
0.25518734139423793,0.18342861744101777,0.3334916864608077,0.8201769309288874,0.380992968250586,0.21681165969946903,0.7860776049992734,0.7723802001053186,0.6929292929292928,0.6202434989182539,0.18229417622305738,0.18641644325290438
0.2533213912524257,0.17891939769707707,0.32858273950910527,0.8236645117386867,0.3812060515661624,0.2118404700033894,0.7841302136317396,0.770115850447604,0.6906926406926407,0.6164255716285582,0.17888921011210693,0.1813226094727435
0.25824749962681,0.18391174812786862,0.32794932699920826,0.8182204831575366,0.3850415512465374,0.21511693593944187,0.7861648016276704,0.7714323328067404,0.6915945165945165,0.6168922071861876,0.18014198066236228,0.18360142984807862
0.2616808478877444,0.1928496658346083,0.33824228028503567,0.8115005103776796,0.38397613466865543,0.2250593153316009,0.7883737828803953,0.7745392311743022,0.6961760461760461,0.623000890849701,0.18386816999132696,0.18932082216264523
0.2598895357516047,0.19148079555519767,0.33919239904988124,0.8132017693092889,0.3823780098018325,0.22449440741159188,0.7891004214503706,0.7754870984728804,0.6967532467532468,0.6216009841768125,0.18338633516430566,0.18976764968722074
0.25212718316166594,0.17763104919880826,0.3287410926365796,0.8249404559373937,0.38035371830385684,0.21104959891537675,0.7863682604272635,0.7725645076355977,0.6918109668109668,0.61477113646969,0.17959590119173813,0.18614834673815905
0.24839528287804152,0.1706256542394718,0.3227236737925574,0.8308097992514462,0.37971446835712763,0.2039317591232629,0.7830257230053771,0.7693786203264876,0.6875541125541125,0.6113774233232937,0.1774115833092416,0.18364611260053618
0.25466487535453053,0.17561800467026328,0.31939825811559774,0.8246002041510718,0.38536117621990196,0.20619139080329907,0.7868333091120476,0.7728541337546077,0.6925685425685425,0.6196071777033046,0.1821014422922489,0.1884271671134942
0.2612330198537095,0.18568322731298817,0.3250989707046715,0.815583531813542,0.38802471766460683,0.21534289910744553,0.7894782735067577,0.7760663507109005,0.6972943722943722,0.6253340686378485,0.18663068966624907,0.19231456657730117
0.25959098372891476,0.1842338352524358,0.3257323832145685,0.8172847907451515,0.3866396761133603,0.21455202801943285,0.7890422903647726,0.7748815165876777,0.6959595959595959,0.6235947906503203,0.18547428608139796,0.19177837354781052
0.2496641289744738,0.1779531363233755,0.33444180522565325,0.8262164001361008,0.3767313019390582,0.2131962490114111,0.7834326406045633,0.7712216956292786,0.6908730158730159,0.6185042209307259,0.18174809675243328,0.1854781054512958
0.24615614270786682,0.17763104919880826,0.3412509897070467,0.8284280367471929,0.3719369273385894,0.21545588069144725,0.7818631012934166,0.768852027382833,0.6883477633477634,0.6139651295974209,0.1794031672609296,0.18181411974977657
0.25138080310494104,0.18503905306385376,0.34473475851148067,0.821537938074175,0.3743873854677178,0.22189583097955035,0.7842464758029356,0.7709583991574512,0.6913419913419914,0.6171043142578374,0.18110565031640488,0.1857462019660411
0.26354679802955666,0.1909976648683469,0.33064133016627073,0.8114154474310992,0.3878116343490305,0.2211049598915377,0.7886353727655864,0.7749605055292259,0.6963924963924965,0.6224918338777415,0.1858918762648164,0.19240393208221626
0.2607851918196746,0.18769627184153312,0.3300079176563737,0.8147329023477373,0.38610696782441933,0.21850638345949608,0.7908443540183112,0.7759873617693522,0.6980158730158731,0.6241462690366097,0.18826892807812148,0.1955764075067024
0.24720107478728168,0.1785167887913681,0.340775930324624,0.8273222184416469,0.37278926060089496,0.21590780702745455,0.7890713559075716,0.7732754081095313,0.69505772005772,0.6200738132609342,0.18402878160033406,0.19168900804289546
0.2450365726227795,0.1842338352524358,0.3567695961995249,0.825535896563457,0.3658640528446622,0.22562422325161002,0.7893620113355617,0.7724065297525013,0.6934704184704185,0.6200738132609342,0.18145899585622047,0.18708668453976762
0.2528735632183908,0.20339801916418387,0.3776722090261283,0.8109050697516162,0.3644790112934157,0.24652581629194437,0.7944484813253888,0.7753817798841496,0.6986291486291486,0.6272006108683664,0.18431788249654685,0.18896336014298482
0.2660098522167488,0.22054915854738708,0.3835312747426763,0.7944028581150052,0.3718303856808012,0.26064851429217034,0.799970934457201,0.7812532912058978,0.7065295815295816,0.635006151105078,0.18961806559378114,0.19530831099195708
0.26556202418271385,0.22328689910620828,0.38986539984164686,0.7932119768628786,0.3693799275516727,0.2648288329002373,0.802412440052318,0.7836229594523434,0.7095959595959596,0.6381453357654945,0.19157752722366772,0.19789991063449508
0.2577250335871025,0.21821402689427488,0.39651623119556617,0.8003572643756381,0.3616023865331344,0.26369901706021914,0.7995640168580148,0.7799631384939442,0.7038600288600289,0.6315275951300217,0.18675917895345476,0.19244861483467382
0.25660546350201524,0.21861663579998394,0.3996832937450515,0.8007825791085404,0.3596846366929469,0.26505479606824084,0.7991570992588287,0.7769088994207477,0.6997113997113997,0.6261824969244475,0.1832578458771,0.18865058087578196
0.26884609643230334,0.22835977131814156,0.3930324623911322,0.7886185777475332,0.370658427445131,0.26957405942831314,0.8011626217119605,0.7798051606108477,0.7044011544011545,0.6320790735163111,0.1886543959397385,0.19499553172475423
0.28131064337960887,0.2422900394556728,0.3938242280285037,0.7742429397754338,0.37928830172597483,0.2795164388204723,0.8035169306786805,0.783938915218536,0.7125901875901876,0.6418784202265304,0.19578555137965373,0.2041554959785523
0.2851918196745783,0.2552540462195024,0.4112430720506731,0.7651412044913236,0.37619859365011715,0.2948819342447181,0.799941868914402,0.7837546076882569,0.7151875901875901,0.6465871972171553,0.19983296392663263,0.20889186773905274
0.2801164352888491,0.25911909171430875,0.4294536817102138,0.7659918339571282,0.36639676113360325,0.3040334425488645,0.787385554425229,0.7764612954186414,0.7091630591630592,0.6428541127561194,0.19758440140053324,0.2067024128686327
0.2778026571130019,0.269425879700459,0.4546318289786224,0.7619088125212657,0.3562753036437247,0.3203027906451248,0.7738119459380903,0.768957345971564,0.7026695526695526,0.638569549908794,0.19649224245928495,0.20630026809651472
0.293700552321242,0.29156936951445367,0.46444972288202696,0.7410683906090508,0.3643724696356275,0.33928369675742853,0.7691614590902485,0.7673512374934176,0.7022366522366522,0.6399270351673525,0.20082875590247662,0.2126899016979446
0.2995969547693686,0.2984942426926484,0.4657165479018211,0.7340932289894522,0.3682079693160025,0.3445938312055135,0.7690742624618514,0.7682991047919957,0.7032106782106782,0.6410724133542612,0.2037197648646044,0.21693476318141197
0.29243170622480963,0.27385457766325794,0.43214568487727645,0.7511908812521266,0.37428084380992965,0.3154445825330471,0.7627670396744659,0.7637704054765666,0.6944444444444444,0.6297458957281636,0.19748803443512897,0.210455764075067
0.27720555306762207,0.2523552620983976,0.42248614410134605,0.7712657366451174,0.3667163861069678,0.2968026211727488,0.7548030809475367,0.7566877303844128,0.6830086580086581,0.6180375853730964,0.18997141113359675,0.2017426273458445
0.27660844902224213,0.2535630888155246,0.42596991290578,0.7709254848587955,0.3651182612401449,0.2989492712687831,0.7491353001017294,0.7525803054239073,0.678138528138528,0.612862172824842,0.1878192155729016,0.2002680965147453
0.29123749813404987,0.2754650132860939,0.4381631037212986,0.7510207553589657,0.37151076070743655,0.31872104846909954,0.7492515622729254,0.75347551342812,0.6805555555555555,0.6142620794977305,0.19215572901609326,0.2077747989276139
0.30929989550679204,0.2877043240196473,0.42391132224861455,0.7342633548826133,0.389196675900277,0.32211049598915376,0.7536695247783752,0.7589520800421274,0.6887085137085137,0.6241038476222798,0.19976871928302978,0.21836461126005366
0.31915211225556056,0.27828327562605687,0.3843230403800476,0.7335828513099694,0.4095461325378223,0.30143486611682296,0.7570411277430606,0.763533438651922,0.6937590187590188,0.6305519026004327,0.2038803764736115,0.22283288650580876
0.31437527989252123,0.2540462195023754,0.3467933491686461,0.7491493705341953,0.418708715107607,0.27104282002033664,0.755704112774306,0.7610847814639284,0.6880952380952381,0.622958469435371,0.20034692107545532,0.2198391420911528
0.32280937453351244,0.23971334245913517,0.3007125890736342,0.7518713848247703,0.4402301299808225,0.24460512936391368,0.7560238337450952,0.7603475513428121,0.6865800865800865,0.6198192847749544,0.19877292730718576,0.21934763181411976
0.33318405732198836,0.23955229889685162,0.27838479809976246,0.7460871044572985,0.4551459620711698,0.23647045531578353,0.7631448917308531,0.7676408636124276,0.6952741702741702,0.6286005175412549,0.2048119238058527,0.22613941018766753
0.3271383788625168,0.24003542958370241,0.2921615201900238,0.7492344334807758,0.4461964628169614,0.24178058976386851,0.7719808167417526,0.774565560821485,0.7034992784992785,0.6373817503075554,0.21120426584433524,0.2319928507596068
0.319376026272578,0.2240921169176262,0.2772763262074426,0.7621640013610071,0.44566375452802043,0.22528527849960456,0.7736084871384973,0.7751974723538705,0.7035714285714285,0.6360242650489968,0.2092126818926472,0.22725647899910634
0.3043737871324078,0.19929140832595216,0.260332541567696,0.7837699897924465,0.44065629661197525,0.20178510902722857,0.7713995058857724,0.7720642443391258,0.6969696969696969,0.6259279684384678,0.19906202820339852,0.21251117068811437
0.2856396477086132,0.1870520975923988,0.2760095011876485,0.8009527050017013,0.4220115064990411,0.19873460625917974,0.7732306350821101,0.7708004212743549,0.6926767676767676,0.6203707631612438,0.19096720310944074,0.19959785522788207
0.27056277056277056,0.1832675738787342,0.30055423594615993,0.8115005103776796,0.40304709141274236,0.2049485933792792,0.777735794215957,0.7707214323328068,0.6924603174603174,0.6184617995163959,0.1886222736179371,0.1948614834673816
0.26309896999552174,0.18085192044448023,0.3116389548693587,0.81702960190541,0.3939910505007458,0.20720822505931535,0.7828513297485831,0.7737756714060031,0.6954184704184704,0.6207949773045434,0.18878288522694422,0.19405719392314563
0.2542916853261681,0.17384652548514376,0.31670625494853527,0.8257910854031983,0.385893884508843,0.20404474070726472,0.7838104926609504,0.7743022643496578,0.6942640692640693,0.6176557926441268,0.18386816999132696,0.18972296693476318
0.2439916405433647,0.16072147515903054,0.3125890736342043,0.8385505273902689,0.3800340933304922,0.19331149022709293,0.7793343990699025,0.7694576092680359,0.6874458874458874,0.6087897170491665,0.17561273328836208,0.17993744414655943
0.23928944618599787,0.15411868910540302,0.30958036421219326,0.8447601224906431,0.3776901768591519,0.1876624110270026,0.7798285132974858,0.7681147972617166,0.6853896103896104,0.6076867602765876,0.17381388326748257,0.1755585344057194
0.24302134646962234,0.15903051775505275,0.31132224861441016,0.8399965974821368,0.37971446835712763,0.1917297480510677,0.7834907716901612,0.7703001579778831,0.6897907647907647,0.6136257582827812,0.177443705631043,0.1801161751563896
0.2522018211673384,0.16603591271438922,0.30562153602533654,0.8310649880911877,0.38813125932239506,0.1946672692351147,0.7862229327132684,0.7740126382306477,0.6947330447330448,0.6216009841768125,0.18338633516430566,0.18699731903485256
0.25906851768920736,0.16651904340124007,0.29200316706254953,0.8268969037087446,0.3977200085233326,0.19003502429104058,0.7859904083708763,0.776013691416535,0.6960678210678211,0.6216434055911424,0.18611673251742636,0.19030384271671139
0.2458575906851769,0.15548755938481362,0.2984956452889944,0.8402517863218782,0.38610696782441933,0.1847248898429556,0.7820665600930097,0.7729857819905213,0.6911255411255411,0.6144741865693802,0.18248691015386595,0.18672922252010726
0.2418271383788625,0.15605121185280615,0.3079968329374505,0.8422082340932291,0.3800340933304922,0.18845328211501525,0.7811945938090393,0.770221169036335,0.6878427128427128,0.6115895303949435,0.17892133243390834,0.18235031277926717
0.25212718316166594,0.1688541750543522,0.31132224861441016,0.8296189179993195,0.3862135094822075,0.1986216246751779,0.7834617061473623,0.7736703528172723,0.6924963924963925,0.6173164213294872,0.18158748514342618,0.18628239499553173
0.25742648156441256,0.16973991464691196,0.30182106096595407,0.8261313371895204,0.3931387172384402,0.19591006665913457,0.7859904083708763,0.7770932069510268,0.6967893217893217,0.6206252916472236,0.18544216375959657,0.19195710455764076
0.24914166293476636,0.1608019969401723,0.3016627078384798,0.8355733242599525,0.3873854677178777,0.18947011637103156,0.7855834907716902,0.7764612954186414,0.6970779220779221,0.6206252916472236,0.18553853072500082,0.19195710455764076
0.24070756829377518,0.15089781785973105,0.3002375296912114,0.8456107519564479,0.38184530151289153,0.18212631341091406,0.7786368260427263,0.7711953659820958,0.6932178932178932,0.6196920205319646,0.18290450033728436,0.18614834673815905
0.24802209284967905,0.155729124728239,0.294061757719715,0.8388907791765907,0.3890901342424888,0.1832561292509321,0.7730853073681151,0.7718009478672986,0.7011904761904761,0.6309761167437323,0.18515306286338376,0.18583556747095623
0.26854754440961337,0.16796843546179244,0.2747426761678543,0.8206873086083702,0.4102919241423396,0.18495085301095923,0.775381485249237,0.7835439705107952,0.7287518037518037,0.6613922708183091,0.19501461565641964,0.1935656836461126
0.29250634423048216,0.17819470166680085,0.24386381631037213,0.8017182715209255,0.43767313019390575,0.18110947915489775,0.7685801482342682,0.788678251711427,0.7513347763347764,0.703643999490943,0.21165397834955513,0.20688114387846293
0.3088520674727571,0.19937193010709398,0.2509897070467142,0.7812181013950324,0.447048796079267,0.1985086430911761,0.7409969481180061,0.7611637704054766,0.7454184704184704,0.7537436898146185,0.24406540104718769,0.23257372654155492
0.3236303925959098,0.24301473548594896,0.30562153602533654,0.7496597482136782,0.4391647134029405,0.248559484803977,0.6900741171341375,0.6873617693522907,0.6909451659451659,0.7905654774530184,0.28665959975587035,0.2670241286863271
0.3575160471712196,0.327482083903696,0.3996832937450515,0.6857774753317455,0.4317067973577669,0.3414303468534629,0.6143002470571137,0.5834123222748815,0.6103174603174603,0.8373987188732874,0.356718383604767,0.3250670241286863
0.432004776832363,0.4520492793300588,0.4866191607284245,0.5774923443348078,0.4555721287023226,0.45983504688735727,0.520970789129487,0.486940494997367,0.540945165945166,0.9122725151656558,0.46358934823809067,0.4198391420911528
0.5067174205105239,0.5770996054432724,0.5741884402216945,0.4689520244981286,0.47943746004687826,0.5788046548412608,0.429734050283389,0.395839915745129,0.4505411255411255,0.94506426844271,0.5727088753975138,0.5252904378909741
0.5919540229885057,0.7060954988324342,0.6468725257323833,0.35216059884314393,0.515874707010441,0.6952886679471246,0.31117570120621996,0.2856240126382307,0.3288239538239538,0.9493912527043653,0.6965083036201857,0.6473637176050044
0.6912972085385878,0.8237378210806023,0.6674584323040381,0.23341272541680844,0.5797997016833581,0.7851090272285616,0.18953640459235574,0.182885729331227,0.2154761904761905,0.957875535570356,0.8375895409720214,0.7822609472743521
0.7953425884460368,0.8951606409533778,0.5873317498020587,0.13644096631507313,0.6811208182399319,0.8065755281889051,0.11536113936927764,0.139942074776198,0.15779220779220776,0.9494336741186952,0.9411519064597988,0.8915549597855229
0.8720704582773549,0.8909735083340042,0.41615201900237536,0.09493024838380408,0.7934157255486896,0.742627951643882,0.11797703822118868,0.17030015797788303,0.16251803751803745,0.8886437873838715,0.9598792200700267,0.9398123324396782
0.8602030153754292,0.827522344794267,0.3163895486935867,0.13525008506294653,0.8184530151289153,0.6625240085866003,0.16884173811945935,0.2098736176935229,0.12842712842712845,0.680821278581428,0.861199447496065,0.9052278820375335
0.8007911628601284,0.7395925597874224,0.26967537608867775,0.21546444368832943,0.7918176006818666,0.5842277708733475,0.23043162331056527,0.2475250131648236,0.08073593073593074,0.4212446442964409,0.7100639234203848,0.8287310098302055
0.7366771159874608,0.6414365085755698,0.21250989707046716,0.3039299081320177,0.765288727892606,0.4949723195119195,0.3021363173957273,0.3024749868351764,0.07806637806637803,0.224791074534425,0.5751180495326202,0.7458445040214476
0.6890580683684132,0.5856349142443031,0.20395882818685668,0.36049676760803,0.7341785638184529,0.45271720709524343,0.3722714721697427,0.36692996313849396,0.12168109668109671,0.13392440503966405,0.4693071215187434,0.6722073279714031
0.6209135691894313,0.5694500362348015,0.31670625494853527,0.4078768288533516,0.6476667376944385,0.4815275110157044,0.4476965557331783,0.43454449710373877,0.20349927849927849,0.16149832435413397,0.39369117599820114,0.6031724754244862
0.5287356321839081,0.5385296722763508,0.4514647664291371,0.4766927526369513,0.5365437886213509,0.5079652016721273,0.5247783752361576,0.5025013164823591,0.2985209235209235,0.2399355194502185,0.33747711284571646,0.529088471849866
0.41954022988505746,0.46428859006361217,0.5371338083927159,0.5781728479074516,0.4296825058597912,0.48638571912778206,0.6044179625054498,0.5772511848341232,0.40595238095238095,0.33932889322530013,0.2821303523818701,0.4359249329758713
0.3201224063293029,0.37531202190192453,0.5730799683293746,0.6818645797890438,0.3466865544427871,0.4367868037509886,0.6757738700770237,0.6517904160084255,0.5143939393939394,0.44237050863275784,0.2366130223892583,0.3407953529937444
0.2636960740409016,0.2885095418310653,0.5220902612826605,0.7598673018033345,0.32356701470274873,0.3576996949497232,0.7313762534515332,0.7122696155871511,0.601082251082251,0.5216561320154415,0.1985159487327744,0.2619302949061662
0.2450365726227795,0.23230533859408975,0.45114806017418846,0.8001871384824771,0.33411463882378006,0.2929612473166873,0.7731725039965122,0.7570036861506055,0.6628066378066377,0.5748525855852035,0.17333204844046127,0.20857908847184986
0.23391550977757875,0.19526531926886223,0.4020585906571656,0.8260462742429399,0.3426379714468357,0.24946333747599136,0.7994186891440197,0.7839915745129016,0.7004329004329004,0.6079837101768973,0.16536571263370917,0.18717605004468274
0.22249589490968802,0.16643852162009826,0.3694378463974664,0.8478223885675401,0.345514596207117,0.21760253078748168,0.8110158407208254,0.7968931016324381,0.7182178932178932,0.6233402621643406,0.1603867527544891,0.17596067917783736
0.20801612180922524,0.1431677268701184,0.3543942992874109,0.8683225586934332,0.3401875133177072,0.19602304824313638,0.8154338032262752,0.8030279094260137,0.725937950937951,0.6292792601705341,0.15338408660177957,0.16255585344057194
0.21137483206448723,0.14365085755696916,0.3480601741884403,0.8661959850289214,0.3447688046025996,0.1939893797311039,0.8203458799593083,0.8087677725118483,0.7354256854256854,0.636745429092606,0.1507821785358646,0.15621090259159964
0.2198835647111509,0.14872372976890247,0.3401425178147268,0.8586253827832597,0.35350522054123157,0.19478025081911643,0.8290655427990118,0.8180621379673513,0.7474747474747474,0.6480295253043737,0.15354469821078667,0.15661304736371762
0.22257053291536052,0.1500926000483131,0.3371338083927158,0.856328683225587,0.35638184530151285,0.1946672692351147,0.8361866007847697,0.8243812532912058,0.7560966810966812,0.6561744368557249,0.15643570717291444,0.15960679177837356
0.22234661889834303,0.14308720508897657,0.3238321456848773,0.8602415787682887,0.3607500532708289,0.18506383459496106,0.8363609940415637,0.8259610321221696,0.7599567099567099,0.6588894073728419,0.15621085092030454,0.15862377122430743
0.20988207195103747,0.13028424188743054,0.3250989707046715,0.8741068390609051,0.3514809290432559,0.17647723421082362,0.8343264060456329,0.8251448130595049,0.7595959595959596,0.6577016077716031,0.15261315087854552,0.15308310991957105
0.20712046574115536,0.12416458652065383,0.31892319873317504,0.8788703640694115,0.3514809290432559,0.16992430233871877,0.8360703386135736,0.8261716692996313,0.7613997113997113,0.6603741568743903,0.14981850888182197,0.14901697944593387
0.21913718465442605,0.1404299863112972,0.3254156769596199,0.8633889077917659,0.3579799701683358,0.18370805558693928,0.8405464322046213,0.8320168509741969,0.7698051948051948,0.6703431892419294,0.15380167678519804,0.1533065236818588
0.22488431109120766,0.15283034060713427,0.3376088677751386,0.853606668935012,0.3578734285105476,0.19681391933114906,0.8448190669960761,0.8363085834649816,0.7763708513708513,0.6767064013914226,0.15675693039092867,0.15630026809651476
0.22257053291536052,0.14703277236492474,0.3311163895486936,0.8579448792106159,0.3585126784572768,0.19037396904304593,0.8440052317977038,0.8352290679304898,0.7769119769119769,0.6754337589615238,0.15402653303780797,0.15268096514745308
0.2100313479623824,0.13382720025766973,0.3317498020585906,0.8721503912895543,0.349350095887492,0.1813354423229014,0.8414183984885918,0.8315955766192733,0.7718253968253969,0.6677130615534723,0.1488869615495808,0.14620196604110813
0.20861322585460515,0.1318946775102665,0.33079968329374504,0.8739367131677442,0.3486043042829746,0.17964071856287425,0.8407208254614155,0.8319378620326487,0.772150072150072,0.6686887540830612,0.1477626802865311,0.14450402144772118
0.2201074787281684,0.14179885659070782,0.32604908946951705,0.8621980265396393,0.3584061367994886,0.18495085301095923,0.8448771980816742,0.8365982095839914,0.7796897546897547,0.6783184151359608,0.1526452732003469,0.1499106344950849
0.22742200328407228,0.14735485948949192,0.32145684877276326,0.85505273902688,0.3652248028979331,0.18709750310699358,0.8499055369859032,0.8417324907846234,0.7858946608946608,0.6845119416281339,0.1563393402075102,0.15455764075067024
0.22092849679056575,0.14413398824381995,0.32889944576405383,0.8604117046614495,0.3579799701683358,0.18754942944300076,0.8492660950443249,0.8417061611374407,0.7856782106782106,0.683536249098545,0.15354469821078667,0.1515638963360143
0.2101059859680549,0.13463241806908768,0.3331749802058591,0.8716400136100715,0.34892392925633925,0.18235227657891762,0.8459235576224385,0.8390205371248025,0.783080808080808,0.6796334789801893,0.14625293116186439,0.14361036639857017
0.20779220779220778,0.13503502697479666,0.3388756927949327,0.8727458319156176,0.3453015128915406,0.1847248898429556,0.8460107542508356,0.8382569773565034,0.7836580086580086,0.6784881007932805,0.14390800167036072,0.1402591599642538
0.2160023884161815,0.1428456397455512,0.336658749010293,0.8638992854712488,0.3519070956744087,0.18947011637103156,0.8514460107542507,0.8429963138493943,0.7907287157287157,0.6845967844567938,0.14766631332112687,0.1438337801608579
0.216226302433199,0.14236250905870035,0.33539192399049883,0.8640694113644097,0.35254634562113785,0.1886792452830189,0.856910332800465,0.8486835176408636,0.7980158730158731,0.6928265388368049,0.15132825800648872,0.1482573726541555
0.21271831616659204,0.13962476849987926,0.33745051464766435,0.8674719292276285,0.349350095887492,0.18743644785899893,0.8555151867461125,0.8492101105845181,0.7994588744588744,0.6949051881389726,0.14962577495101345,0.14655942806076855
0.2019704433497537,0.13165311216684114,0.34457640538400636,0.8778496087104457,0.33922863839761347,0.18438594509095022,0.854236302862956,0.8477619799894681,0.7985930735930735,0.6924023246935054,0.14455044810638915,0.13963360142984807
0.1974175250037319,0.1284322409211692,0.347901821060966,0.8821027560394693,0.33486043042829744,0.1833691108349339,0.8540909751489609,0.8477356503422854,0.8002886002886002,0.6936325457090741,0.14169156146606277,0.1344504021447721
0.20876250186595013,0.14308720508897657,0.352652414885194,0.8678972439605309,0.34135947155337737,0.19534515873912556,0.8601947391367534,0.8541074249605056,0.8088023088023087,0.7029652568616638,0.14493591596800617,0.13744414655942808
0.21264367816091953,0.14872372976890247,0.3555027711797308,0.8627934671657026,0.3431706797357767,0.20020336685120324,0.8654846679261735,0.8607161664033701,0.8186147186147186,0.7115343825563145,0.14850149368796378,0.14195710455764074
0.2037617554858934,0.13712859328448343,0.3515439429928741,0.8739367131677442,0.33816322181973146,0.1907129137950514,0.8666472896381341,0.8615850447604003,0.8203463203463203,0.7095829974971366,0.14471105971539625,0.13856121537086685
0.19502910882221225,0.12593606570577345,0.3480601741884403,0.8848247703300443,0.3330492222458981,0.18167438707490677,0.8641767185002179,0.8599789362822537,0.8192640692640693,0.7063165485937302,0.13902540875654493,0.1326184092940125
0.1973428869980594,0.13253885175940092,0.3561361836896279,0.8799761823749576,0.33198380566801616,0.1891311716190261,0.8666472896381341,0.8633491311216429,0.824025974025974,0.7115768039706445,0.13854357392952363,0.13141197497765864
0.20652336169577548,0.1461470327723649,0.3634204275534442,0.867556992174209,0.3361389303217558,0.20133318269122136,0.8724313326551373,0.8708004212743549,0.8336940836940836,0.7205277223942648,0.13976422215797757,0.13293118856121539
0.20652336169577548,0.1562122554150898,0.3832145684877277,0.8622830894862199,0.3294268058810995,0.21545588069144725,0.8781863101293417,0.8770668773038441,0.8428932178932178,0.7280363127306666,0.14027817930680028,0.13436103663985702
0.19920883713987161,0.15444077622997024,0.395249406175772,0.867386866281048,0.3201576816535265,0.21850638345949608,0.8793779973841012,0.8798841495523959,0.8476551226551227,0.7285029482882961,0.1353955863929845,0.12957998212689903
0.1876399462606359,0.13954424671873744,0.3906571654790183,0.8818475671997278,0.3135520988706584,0.2064173539713027,0.8793489318413021,0.8805950500263298,0.8492784992784993,0.7271030416154075,0.12945295685972183,0.12117962466487936
0.1915211225556053,0.1404299863112972,0.384006334125099,0.8792106158557332,0.3184530151289154,0.20460964862727374,0.8820229617788112,0.8848077935755659,0.8559163059163059,0.7305815975904638,0.12820018630946645,0.11881143878462913
0.19547693685624717,0.14993155648602946,0.3942992874109264,0.871895202449813,0.3179203068399744,0.21500395435544006,0.8894928062781572,0.8933122696155872,0.8666666666666666,0.741314215415942,0.1310911952715942,0.12229669347631815
0.20032840722495893,0.15484338513567922,0.3935075217735551,0.8665362368152434,0.32154272320477306,0.2181674387074907,0.8958872256939399,0.90115850447604,0.8774170274170273,0.7507317693971917,0.13211910956923967,0.12412868632707774
0.18846096432303328,0.14985103470488767,0.40902612826603335,0.8758931609390951,0.3079053910078841,0.2202011072195232,0.8990844354018311,0.9051606108478146,0.8852453102453102,0.7548890680015272,0.12717227201182102,0.11858802502234138
0.1786833855799373,0.14018842096787185,0.41076801266825025,0.8866110922082342,0.30034093330492223,0.21398712009942375,0.8996948118006104,0.9073986308583465,0.8876984126984127,0.7525983116277097,0.119366547814076,0.10907059874888293
0.1818928198238543,0.14622755455350672,0.4158353127474268,0.8815923783599865,0.3008736415938632,0.22008812563552138,0.90353146345008,0.9122432859399683,0.895995670995671,0.7572646672040046,0.11560823616330988,0.10455764075067024
0.1882370503060158,0.1598357355664707,0.42913697545526525,0.8707893841442668,0.30098018325165143,0.2343238052197492,0.9126289783461705,0.921669299631385,0.9097041847041847,0.7700335129173207,0.116764639748161,0.1063449508489723
0.18674429019256605,0.16498912955954584,0.44228028503562955,0.8689179993194965,0.29554655870445345,0.242684442435883,0.9206801337014968,0.9314902580305424,0.9226911976911976,0.7809358164001188,0.11615431563393402,0.1066130473637176
0.1733094491715181,0.15613173363394797,0.45368171021377685,0.8812521265736646,0.28212230982314085,0.24042481075584682,0.9253306205493387,0.9365718799368088,0.9295815295815295,0.7819963517583677,0.10921589412482735,0.10022341376228776
0.15890431407672787,0.152910862388276,0.47759303246239126,0.8912044913235795,0.26369060302578307,0.246751779459948,0.9258828658625199,0.9384676145339653,0.9332251082251082,0.7811479234717686,0.10108894670906812,0.09012511170688114
0.1561427078668458,0.15766164747564215,0.49295328582739517,0.8902687989111944,0.256552311953974,0.255564343012089,0.930678680424357,0.9436282253817798,0.9406204906204906,0.7860688075340432,0.09630272076065657,0.08476318141197499
0.16263621436035228,0.17199452451888236,0.5073634204275536,0.8789554270159919,0.25644577029618576,0.2707038752683313,0.9406481616044179,0.9542127435492364,0.9544011544011544,0.7969286896025115,0.09607786450804663,0.08663985701519214
0.16360650843409463,0.18157661647475642,0.524148851939826,0.8733412725416809,0.25143831238014064,0.2834707942605355,0.9471007121057985,0.9620063191153239,0.9663059163059162,0.8032070589233445,0.0930904885805146,0.08431635388739947
0.14808180325421705,0.16933730574120298,0.5328582739509106,0.8886526029261654,0.23748135520988706,0.277934696644447,0.9495712832437145,0.9633228014744603,0.9678932178932178,0.7987103890043694,0.08300407953486877,0.07368185880250223
0.12949693984176744,0.16047990981560512,0.5550277117973081,0.9038788703640694,0.21670573194118897,0.27974240198847583,0.9493968899869205,0.9620326487625066,0.9678932178932178,0.7939591905994147,0.07147216600815906,0.06206434316353887
0.12621286759217792,0.16716321765037442,0.57513855898654,0.9022626743790406,0.2076496910291924,0.2914924867246638,0.9526231652376108,0.9657977883096366,0.9728715728715728,0.7948924617146735,0.06652532845074043,0.05710455764075067
0.13240782206299448,0.17908044125936068,0.5852731591448932,0.8924804355222865,0.20860856594928617,0.3034685346288555,0.9575643075134429,0.9723012111637704,0.980050505050505,0.8016798880074661,0.07034788474510938,0.0614834673815907
0.13442304821615164,0.18149609469361463,0.5859065716547902,0.890013610071453,0.2098870658427445,0.30538922155688625,0.9602383374509519,0.9744602422327541,0.9834054834054833,0.804691808424893,0.07188975619157752,0.0645218945487042
0.11889834303627407,0.16973991464691196,0.5957244655581949,0.9050697516161961,0.19539740038354997,0.3006439950288103,0.9597442232233687,0.9725118483412322,0.9807359307359308,0.7980740677894202,0.06427676592464104,0.05750670241286864
0.10844902224212567,0.1626539979064337,0.6039588281868569,0.9147669275263696,0.18527594289367144,0.29861032651677777,0.9572155209998546,0.9691943127962084,0.9754329004329004,0.7901836847240488,0.055089781889434954,0.047944593386952644
0.10718017614569339,0.16571382558982206,0.6126682501979415,0.9138312351139843,0.18144044321329642,0.30392046096486275,0.9569829966574626,0.9692996313849395,0.9770562770562771,0.7901412633097189,0.05088175773344899,0.04396782841823056
0.1115838184803702,0.18278444319188344,0.6370546318289788,0.902347737325621,0.176326443639463,0.32459609083719354,0.9614009591629122,0.9733280674038968,0.9838023088023088,0.7969711110168414,0.05101024702065465,0.046693476318141205
0.11225556053142259,0.19212496980433208,0.653840063341251,0.8969887716910515,0.17121244406562966,0.3371370466613942,0.9625054497892749,0.974275934702475,0.9854256854256853,0.7987103890043694,0.05017506665381774,0.047050938337801614
0.10815047021943573,0.18954827280779454,0.6574821852731593,0.9007315413405921,0.16695077775410183,0.33668512032538694,0.9598604853945647,0.9703264876250658,0.9804834054834055,0.7923471768548764,0.04644887732485305,0.043476318141197505
0.10277653381101656,0.18640792334326436,0.6627078384798101,0.9054950663490984,0.16141061154911568,0.33623319398937973,0.9532626071791891,0.9630858346498157,0.9722222222222222,0.7819539303440377,0.04066685940059747,0.03847184986595175
0.10150768771458427,0.19341331830260083,0.6791765637371339,0.9025178632187819,0.1549115704240358,0.34707942605355324,0.950239790728092,0.9595839915745129,0.969011544011544,0.7801722309421796,0.04076322636600174,0.04021447721179625
0.11150918047469771,0.20734358644013207,0.6853523357086303,0.8894181694453897,0.16002556999786915,0.35905547395774484,0.9492806278157243,0.9577935755660875,0.9683621933621933,0.7839053154032156,0.04734830233529278,0.048927613941018765
0.12210777728019107,0.21410741605604316,0.6761678543151228,0.8798060564817966,0.17067973577668868,0.36052423454976834,0.9449498619386717,0.9533701948393891,0.9652958152958152,0.7845840580324948,0.054029745269988126,0.05755138516532619
0.11509180474697715,0.20275384491504955,0.6687252573238323,0.8897584212317116,0.1682292776475602,0.3499039656535984,0.9366661822409533,0.9429963138493944,0.9515151515151514,0.7765664107241336,0.05566798368186053,0.060232350312779265
0.11024033437826541,0.19494323214429507,0.6636579572446557,0.8966485199047296,0.16641806946516088,0.34267314427748274,0.9250399651213487,0.9303317535545023,0.9361832611832612,0.7670640139142241,0.057081365841123,0.06032171581769437
0.1206150171667413,0.20082132216764634,0.653206650831354,0.8877169105137803,0.17739186021734496,0.3430120890294882,0.9143147798285133,0.9189836756187466,0.9214285714285715,0.7599796377211218,0.06376280877581832,0.06724754244861483
0.13882669055082847,0.21579837346002095,0.6440221694378465,0.8694283769989793,0.19347965054336244,0.3502429104056039,0.9078912948699317,0.9106635071090048,0.9116522366522367,0.7603614304500913,0.07783238572484019,0.08275245755138518
0.15203761755485892,0.2250583782913278,0.6342042755344418,0.8569241238516503,0.2061581078201577,0.3532934131736527,0.9004505159133847,0.9014218009478674,0.9,0.7599372163067918,0.09196620731746491,0.09906166219839142
0.15457530974772354,0.2200660278605363,0.6190023752969122,0.8581150051037768,0.21308331557639038,0.3443678680375099,0.8870222351402411,0.8862559241706162,0.8797979797979798,0.7495015483816231,0.10060711188204685,0.10804289544235925
0.15464994775339602,0.21128915371608017,0.6015835312747427,0.8627934671657026,0.2189431067547411,0.33193989379731104,0.8715303008283679,0.8675882043180622,0.8538961038961038,0.7333389895219108,0.10529697086505412,0.11197497765862377
0.17062248096730853,0.21756985264514056,0.5800475059382424,0.8502892140183737,0.23769443852546343,0.3286634278612586,0.8610085743351257,0.8561611374407583,0.8367965367965368,0.72489712807025,0.11583309241591982,0.12220732797140303
0.18681892819823853,0.22650777035188022,0.5631037212984957,0.8364239537257571,0.2548476454293629,0.32888939102926223,0.8540328440633629,0.8482885729331227,0.8257215007215006,0.7210367793662241,0.12996691400854454,0.13811438784629132
0.19398417674279742,0.22924551091070133,0.5534441805225654,0.8308097992514462,0.2632644363946303,0.32742063043723874,0.8471733759627962,0.8383096366508689,0.8122294372294372,0.7152674670173504,0.14169156146606277,0.1518319928507596
0.2006269592476489,0.2239310733553426,0.5290577988915282,0.829874106839061,0.27626251864479007,0.3149926561970399,0.8364772562127598,0.8263296471827278,0.7944444444444444,0.7026258855470241,0.14795541421733963,0.1579088471849866
0.203090013434841,0.21338272002576703,0.502929532858274,0.8340421912215039,0.2868101427658214,0.2981584001807705,0.8251126289783461,0.8137440758293839,0.7758658008658009,0.6888389258897892,0.15136038032829013,0.1607685433422699
0.21055381400208983,0.2108865448103712,0.48218527315914494,0.8310649880911877,0.2990624334114639,0.2890068918766241,0.8192413893329458,0.8061874670879411,0.7630952380952382,0.6815848640393671,0.15820243487199256,0.1677390527256479
0.2280937453351246,0.22199855060793944,0.466825019794141,0.8152432800272202,0.3167483486043043,0.2913795051406621,0.8177009155645981,0.8032385466034755,0.7587662337662338,0.6809485428244179,0.16909190196267385,0.17984807864164432
0.2348858038513211,0.226990901038731,0.46239113222486145,0.808693433140524,0.3230343064138078,0.2933001920686928,0.8167708181950297,0.80115850447604,0.7546536796536796,0.6802698001951385,0.17860010921589412,0.19101876675603216
0.22951186744290192,0.21571785167887914,0.4514647664291371,0.8177951684246344,0.3229277647560196,0.281437125748503,0.8104635954076442,0.7937862032648761,0.7428210678210678,0.6710643532855386,0.17982075744434808,0.19155495978552278
0.22652634721600237,0.2039616716321765,0.43452098178939036,0.8256209595100374,0.32655018112081824,0.26720144616427516,0.8033134718790874,0.7852290679304897,0.73008658008658,0.6601196283884105,0.1783752529632842,0.18856121537086684
0.23936408419167038,0.21072550124808764,0.42074425969912915,0.8148179652943179,0.34029405497549536,0.2669754829962716,0.800058131085598,0.7820431806213797,0.7245670995670995,0.6565986509990244,0.18091291638559634,0.19021447721179627
0.2497387669801463,0.22183750704565583,0.4205859065716549,0.8029942157196326,0.34775197102066907,0.2747712122923963,0.8020636535387298,0.7839652448657188,0.7252525252525253,0.6582106647435626,0.18672705663165334,0.1968722073279714
0.2519779071503209,0.2217569852645141,0.4158353127474268,0.8018033344675061,0.3509482207543149,0.27296350694836746,0.8040691759918617,0.7853343865192206,0.7262626262626263,0.6589318287871718,0.19067810221322798,0.2014745308310992
0.24279743245260485,0.2080682824704083,0.40823436262866203,0.8142225246682546,0.3470061794161517,0.26064851429217034,0.8002034587995931,0.781621906266456,0.7208513708513709,0.653247359266958,0.18936108701936977,0.19928507596067918
0.2334676817435438,0.19446010145744422,0.40126682501979416,0.8267267778155836,0.3426379714468357,0.2486724663879787,0.7955820374945501,0.7758557135334386,0.7131673881673882,0.6445509693293175,0.18486396196717098,0.1923592493297587
0.24160322436184503,0.20033819148079554,0.3955661124307206,0.8189860496767608,0.350415512465374,0.2508191164840131,0.7956982996657462,0.7761716692996313,0.7124819624819625,0.6437873838713783,0.18508881821978093,0.19267202859696156
0.24832064487236902,0.21112811015379662,0.4025336500395883,0.8094589996597483,0.3527594289367142,0.26076149587617214,0.8000871966283971,0.7804370721432333,0.7182178932178932,0.650532388749841,0.18977867720278824,0.19959785522788207
0.2495894909688013,0.21241645865206538,0.40237529691211404,0.8080979925144608,0.3538248455145962,0.2616653485481866,0.8012207527975584,0.7828593996840442,0.7207070707070706,0.6549442158401562,0.1929587870611288,0.20263628239499554
0.2464546947305568,0.20315645382075853,0.3908155186064926,0.8147329023477373,0.3554229703814191,0.25104507965201667,0.7980816741752652,0.7805160610847814,0.7178210678210677,0.6511687099647903,0.19128842632745496,0.19959785522788207
0.2398119122257053,0.18970931637007807,0.3783056215360254,0.8256209595100374,0.35489026209247815,0.23714834481979435,0.7952623165237611,0.7769615587151132,0.713095238095238,0.6447206549866373,0.18640583341363914,0.19253798033958894
0.23548290789670098,0.19067557774377972,0.38939034045922416,0.8275774072813883,0.34807159599403364,0.24178058976386851,0.7962796105217265,0.7785413375460768,0.713924963924964,0.6464175115598355,0.18685554591885903,0.19271671134941912
0.2465293327362293,0.2023512360093405,0.38907363420427554,0.8150731541340593,0.35606222032814827,0.24991526381199866,0.8004069175991863,0.7836229594523434,0.7206709956709957,0.6541382089678871,0.191673894189072,0.1972743521000894
0.24988804299149128,0.20194862710363154,0.38099762470308796,0.81337189520245,0.3611762199019816,0.2466387978759462,0.8027321610231071,0.7857556608741443,0.7255050505050504,0.6595681500021211,0.19389033439336995,0.20004468275245754
0.24346917450365727,0.19470166680086964,0.3805225653206651,0.8209424974481117,0.3567014702748775,0.24144164501186302,0.7987501816596425,0.7833333333333333,0.7222222222222222,0.6560471726127349,0.1902605120298095,0.1951295799821269
0.2360800119420809,0.18656896690554792,0.38020585906571663,0.8293637291595781,0.3515874707010441,0.23567958422777086,0.7953495131521582,0.7792785676671932,0.7167027417027416,0.6498536461205617,0.18467122803636246,0.1873994638069705
0.2404090162710852,0.1916418391174813,0.38099762470308796,0.82425995236475,0.3543575538035372,0.23940797649983053,0.7960470861793344,0.7803844128488678,0.7175685425685425,0.649599117634582,0.18457486107095822,0.18681858802502233
0.24846992088371397,0.201787583541348,0.384006334125099,0.814307587614835,0.35915192840400595,0.2476556321319625,0.799941868914402,0.7849394418114797,0.7234487734487733,0.6557502227124253,0.1879798271819087,0.1920911528150134
0.24914166293476636,0.20138497463563892,0.38163103721298497,0.8141374617216741,0.36043042829746424,0.24652581629194437,0.8021799157099259,0.7872037914691944,0.725937950937951,0.6587197217155221,0.18932896469756835,0.1934763181411975
0.24600686669652186,0.19131975199291407,0.3684877276326208,0.8211976862878531,0.3626678031110164,0.23477573155575637,0.800058131085598,0.7845971563981042,0.7227994227994228,0.6548169515971664,0.18682342359705761,0.1892314566577301
0.24287207045827736,0.1819792253804654,0.3567695961995249,0.8279176590677102,0.36426592797783935,0.2240424810755847,0.795320447609359,0.7806740389678778,0.7177128427128426,0.6493870105629322,0.1830972342680929,0.18453976764968721
0.24496193461710705,0.18391174812786862,0.3561361836896279,0.8257910854031983,0.3659705945024504,0.22517229691560273,0.7947391367533789,0.7809636650868879,0.7172438672438672,0.649556696220252,0.1824226655102631,0.1851206434316354
0.24914166293476636,0.19413801433287706,0.3673792557403009,0.8179652943177952,0.3652248028979331,0.2363574737317817,0.7989245749164365,0.7845971563981042,0.7212481962481962,0.6540533661392272,0.185859753943015,0.1898123324396783
0.254739513360203,0.20082132216764634,0.3686460807600951,0.8112453215379382,0.3688472192627317,0.24144164501186302,0.800116262171196,0.7850447604002107,0.7228715728715729,0.6573198150426336,0.18804407182551156,0.19343163538873995
0.24809673085535153,0.19123923021177233,0.363895486935867,0.820091867982307,0.3656509695290859,0.23308100779572932,0.7974131666908879,0.7822801474460241,0.7183982683982684,0.6518898740083995,0.18473547267996532,0.1886952636282395
0.241901776384535,0.1852806184072792,0.36532066508313543,0.8267267778155836,0.3607500532708289,0.22935261552366967,0.7934021217846243,0.7786993154291733,0.7137806637806638,0.645908454587876,0.18126626192541198,0.18293118856121537
0.24526048663979697,0.18995088171350352,0.3673792557403009,0.8223885675399796,0.36245471979544,0.2334199525477347,0.7927917453858451,0.7775934702474987,0.7118686868686869,0.6451448691299368,0.1808165494201921,0.18293118856121537
0.2528735632183908,0.2030759320396167,0.376880443388757,0.8110751956447773,0.3646920946089921,0.24596090837193535,0.7961052172649324,0.7813059505002633,0.717099567099567,0.6500657531922115,0.1849924512543767,0.1885165326184093
0.2500373190028362,0.20057975682422097,0.3781472684085512,0.8140523987750936,0.3622416364798636,0.2447181109479155,0.7972969045196918,0.7826750921537651,0.7183621933621933,0.6482840537903534,0.18647007805724197,0.19079535299374442
0.24227496641289742,0.18882357677751832,0.37149643705463187,0.8246852670976523,0.35893884508842955,0.23409784205174555,0.795029792181369,0.779015271195366,0.713023088023088,0.6403088278963222,0.1829366226590858,0.18628239499553173
0.24078220629944766,0.183750704565585,0.3646872525732384,0.8281728479074516,0.3602173449818879,0.22810981809964972,0.7903793053335271,0.7750658241179568,0.7075757575757575,0.6336910872608493,0.17879284314670263,0.17989276139410187
0.24339453649798476,0.18648844512440618,0.3645288994457641,0.8252807077237156,0.36213509482207545,0.23003050502768052,0.7906990263043162,0.7749605055292259,0.7067099567099566,0.6335638230178594,0.17879284314670263,0.17953529937444146
0.24749962680997162,0.19703679845398184,0.3765637371338084,0.8173698536917319,0.3609631365864053,0.24166760817986668,0.7946519401249819,0.778436018957346,0.7117965367965366,0.6392907139524032,0.18351482445151138,0.18623771224307417
0.2520525451559934,0.200177147918512,0.37307996832937446,0.8131167063627085,0.36533134455572125,0.242684442435883,0.7960761517221333,0.7803317535545023,0.7137085137085136,0.6414966274975609,0.1866949343098519,0.1906166219839142
0.24406627854903715,0.18962879458893633,0.3691211401425178,0.8232391970057843,0.36106967824419345,0.23375889729974017,0.7915709925882866,0.7769088994207477,0.7075396825396826,0.6355576294913673,0.18361119141691562,0.1872207327971403
0.24085684430512014,0.18608583621869715,0.3692794932699921,0.826981966655325,0.358619220115065,0.2313862840357022,0.7882575207091992,0.7737756714060031,0.7022005772005772,0.6300852670428033,0.1803347145931708,0.18279714030384273
0.24526048663979697,0.1909976648683469,0.3694378463974664,0.8218781898604969,0.3618154698487108,0.2348887131397582,0.787530882139224,0.772722485518694,0.7011183261183261,0.6288126246129047,0.17914618868651827,0.18065236818588024
0.2528735632183908,0.20025766969965372,0.37149643705463187,0.8126063286832256,0.3665033027913914,0.24211953451587387,0.7907862229327133,0.775434439178515,0.7049422799422799,0.635006151105078,0.18206931997044745,0.18427167113494192
0.2489923869234214,0.2024317577904823,0.384006334125099,0.8136270840421913,0.3594715533773706,0.2481075584679697,0.7941868914401976,0.7784886782517114,0.708080808080808,0.6383150214228143,0.18508881821978093,0.1881590705987489
0.23958799820868787,0.19188340446090665,0.3830562153602534,0.8246002041510718,0.3530790539100788,0.24031182917184502,0.7909896817323063,0.7740652975250131,0.7023809523809524,0.6310185381580623,0.1811377726382063,0.183467381590706
0.23936408419167038,0.18286496497302523,0.36595407759303245,0.8294487921061585,0.3587257617728532,0.2279968365156479,0.7868914401976457,0.7704581358609794,0.6966810966810966,0.6244856403512494,0.17811827438887282,0.17917783735478104
0.24257351843558742,0.1854416619695628,0.36421219319081555,0.8263014630826813,0.3616023865331344,0.22912665235566604,0.7868623746548467,0.7708530805687203,0.6966810966810966,0.6256310185381581,0.18055957084578075,0.1837354781054513
0.25063442304821615,0.19470166680086964,0.36532066508313543,0.8168594760122492,0.36692946942254423,0.23601852897977632,0.7910187472751053,0.7757767245918905,0.7015151515151515,0.6308488525007424,0.1862773441264335,0.19222520107238605
0.24951485296312884,0.19518479748772044,0.3686460807600951,0.8171997277985711,0.3651182612401449,0.23760027115580154,0.7930824008138352,0.777567140600316,0.7047979797979798,0.6342001442328088,0.1883974173653272,0.19405719392314563
0.24339453649798476,0.18954827280779454,0.37070467141726055,0.8236645117386867,0.3600042616663115,0.2343238052197492,0.7891585525359686,0.7737230121116376,0.6998556998556998,0.627539982183006,0.1832578458771,0.18717605004468274
0.2399611882370503,0.18093244222562202,0.3608867775138559,0.8302143586253828,0.3608565949286171,0.22472037057959554,0.7854381630576951,0.7697998946814113,0.6937590187590188,0.620285920332584,0.17860010921589412,0.1804289544235925
0.24384236453201968,0.18141557291247282,0.3536025336500396,0.8276624702279687,0.3660771361602386,0.2225737204835612,0.7858160151140823,0.7701948393891522,0.6934704184704185,0.6204556059899038,0.17917831100831969,0.18083109919571047
0.25063442304821615,0.1922054915854739,0.3604117181314332,0.8181354202109562,0.36863413594715533,0.23251609987572022,0.7888969626507776,0.7737230121116376,0.6985569985569985,0.6272006108683664,0.18418939320934116,0.1872207327971403
0.2519779071503209,0.19542636283114587,0.36405384006334124,0.8156685947601225,0.3684210526315789,0.23601852897977632,0.7897689289347478,0.7752501316482359,0.6997835497835497,0.6277945106689857,0.1856670200122065,0.19066130473637175
0.24846992088371397,0.1892261856832273,0.3593032462391133,0.8209424974481117,0.36746217771148515,0.23003050502768052,0.7871820956256358,0.7725908372827804,0.6969336219336218,0.6235523692359903,0.1832257235552986,0.18699731903485256
0.2442901925660546,0.1791609630405025,0.34821852731591446,0.8286832255869344,0.3682079693160025,0.21907129137950518,0.7841011480889405,0.7690626645602948,0.6923160173160172,0.6180375853730964,0.17962802351353957,0.18168007149240392
0.2500373190028362,0.18334809565987603,0.3442596991290578,0.8231541340592039,0.37364159386320045,0.22054005197152868,0.785176573172504,0.7697735650342284,0.6930735930735931,0.6204131845755738,0.1812983842472134,0.18333333333333332
0.2522018211673384,0.19470166680086964,0.3619952494061758,0.815923783599864,0.3692733858938845,0.2348887131397582,0.7896817323063509,0.7738283307003686,0.6992063492063492,0.6271157680397065,0.18560277536860365,0.18954423592493297
0.2509329750709061,0.19510427570657862,0.36547901821060974,0.8164341612793469,0.3671425527381206,0.2363574737317817,0.7913384682458945,0.7751711427066877,0.7006854256854256,0.6283459890552752,0.18672705663165334,0.19204647006255585
0.24526048663979697,0.1847974877204284,0.3572446555819478,0.8251105818305547,0.3658640528446622,0.22618913117161904,0.7864263915128615,0.7714849921011059,0.6950937950937951,0.6225766767064015,0.18251903247566734,0.18619302949061664
0.23921480818032542,0.1781141798856591,0.3569279493269992,0.8320857434501531,0.36170892819092265,0.22144390464354308,0.782880395291382,0.7670616113744075,0.6893217893217893,0.6160013574852586,0.17734733866563876,0.1791331546023235
0.24227496641289742,0.1826233996295998,0.359144893111639,0.8280027220142906,0.3630939697421692,0.22528527849960456,0.782444412149397,0.7683517640863612,0.6906926406926407,0.6179951639587664,0.17860010921589412,0.18047363717605006
0.2495894909688013,0.19276914405346648,0.3637371338083927,0.8183906090506975,0.3667163861069678,0.23409784205174555,0.7872983577968319,0.7723802001053186,0.6960678210678211,0.6241038476222798,0.1835469467733128,0.18637176050044682
0.24951485296312884,0.19526531926886223,0.3688044338875694,0.8171146648519906,0.36501171958235673,0.23760027115580154,0.7896526667635518,0.7738283307003686,0.6978715728715729,0.6268188181393968,0.18595612090841926,0.18945487042001785
0.24055829228243022,0.18222079072389083,0.36231195566112434,0.8291936032664172,0.3607500532708289,0.22618913117161904,0.7861938671704694,0.7704318062137967,0.6927849927849927,0.6217706698341323,0.18219780925765314,0.1848078641644325
0.2361546499477534,0.1740075690474273,0.35534441805225664,0.8359986389928548,0.3600042616663115,0.21794147553948706,0.7830838540909751,0.7672459189046866,0.6885281385281384,0.6163407287998982,0.17847161992868846,0.1797140303842717
0.24100612031646515,0.1819792253804654,0.36057007125890733,0.8290234773732562,0.36170892819092265,0.22539826008360636,0.7842174102601366,0.7677198525539758,0.6887806637806637,0.6166376787002079,0.1798850020879509,0.18083109919571047
0.2516047171219585,0.19454062323858604,0.36294536817102135,0.8163490983327663,0.3684210526315789,0.23500169472376004,0.7873564888824299,0.7715903106898367,0.694047619047619,0.6234675264073305,0.18502457357617808,0.18766756032171583
0.251679355127631,0.19470166680086964,0.36310372129849566,0.8161789724396054,0.3684210526315789,0.23522765789176367,0.7885772416799884,0.7735650342285413,0.6961038961038961,0.6254613328808384,0.18666281198805051,0.1903485254691689
0.23854306612927303,0.18391174812786862,0.36975455265241497,0.8293637291595781,0.35680801193266565,0.23003050502768052,0.7847987211161168,0.7686150605581885,0.6906204906204906,0.6179527425444366,0.18145899585622047,0.18351206434316356
0.2316763696074041,0.1779531363233755,0.37260490894695175,0.8364239537257571,0.35105476241210315,0.22686702067562986,0.7818921668362157,0.7644549763033176,0.6858225108225108,0.6116319518092733,0.177443705631043,0.17810545129579983
0.23652783997611582,0.1818181818181818,0.3699129057798891,0.8316604287172509,0.3554229703814191,0.22867472601965882,0.782793198662985,0.7655081621906267,0.6876262626262627,0.6133712297968015,0.17927467797372396,0.18033958891867738
0.2470517987759367,0.19131975199291407,0.3664291369754553,0.8206873086083702,0.3640528446622629,0.23409784205174555,0.7876762098532191,0.7703264876250658,0.6929292929292928,0.6195647562889748,0.1840609039221355,0.18686327077747988
0.24682788475891923,0.19437957967630248,0.37276326207442606,0.8191561755699218,0.3618154698487108,0.23839114224381422,0.7895364045923557,0.7730647709320695,0.6960317460317459,0.6224069910490816,0.185249429828788,0.18972296693476318
0.24108075832213766,0.18664948868668974,0.36959619952494066,0.8265566519224227,0.3587257617728532,0.2319511919557112,0.7859032117424792,0.768957345971564,0.6913419913419914,0.6182072710304162,0.1817802190742347,0.18476318141197495
0.2374234960441857,0.18020774619534588,0.3646872525732384,0.8320006805035727,0.3577668868527594,0.22562422325161002,0.7826769364917889,0.7653238546603476,0.686976911976912,0.6133288083824715,0.17815039671067426,0.1804289544235925
0.24130467233915506,0.1836701827844432,0.3634204275534442,0.8280027220142906,0.3609631365864053,0.2275449101796407,0.7846533934021218,0.767509215376514,0.6884559884559884,0.6151953506129895,0.17943528958273103,0.18217158176943699
0.24742498880429917,0.1917223608986231,0.366270783847981,0.8201769309288874,0.3643724696356275,0.2343238052197492,0.7885191105943903,0.771090047393365,0.6928210678210678,0.6194799134603148,0.1839002923131284,0.18771224307417336
0.24548440065681446,0.19148079555519767,0.3699129057798891,0.8214528751275944,0.3618154698487108,0.2353406394757654,0.7903211742479291,0.7722485518694049,0.6952741702741702,0.622067619734442,0.18688766824066044,0.19066130473637175
0.24085684430512014,0.18568322731298817,0.3683293745051465,0.827152092548486,0.3590453867462177,0.23070839453169134,0.7871820956256358,0.7692996313849395,0.6902236652236652,0.6179103211301066,0.18412514856573833,0.18610366398570152
0.2348858038513211,0.17891939769707707,0.3676959619952495,0.8341272541680845,0.3549968037502663,0.22573720483561183,0.7837523615753524,0.7651395471300685,0.6840909090909091,0.6106562592796845,0.17860010921589412,0.1800714924039321
0.24354381250932977,0.18890409855866014,0.36896278701504354,0.8239197005784281,0.3606435116130407,0.23330697096373287,0.7838976892893474,0.7663243812532912,0.6861832611832611,0.612904594239172,0.1796922681571424,0.18141197497765862
0.25100761307657854,0.19639262420484743,0.3680126682501979,0.8156685947601225,0.36639676113360325,0.23816517907581067,0.7885481761371893,0.7703001579778831,0.6922077922077922,0.6197344419462946,0.18444637178375253,0.18811438784629134
0.24675324675324675,0.19373540542716808,0.3716547901821062,0.8195814903028241,0.36213509482207545,0.23760027115580154,0.7897398633919488,0.7720642443391258,0.6946969696969697,0.6218979340771222,0.18659856734444766,0.19052725647899912
0.23630392595909835,0.184153313471294,0.3749802058590658,0.8305546104117048,0.35350522054123157,0.23206417353971304,0.7868333091120476,0.7689310163243813,0.6902958152958152,0.6174861069868071,0.18332209052070286,0.18489722966934763
0.23048216151664427,0.18020774619534588,0.37973079968329376,0.8359986389928548,0.34775197102066907,0.23104733928369672,0.7840720825461416,0.7648762506582412,0.6861471861471861,0.612819751410512,0.17978863512254664,0.17917783735478104
0.24070756829377518,0.1917223608986231,0.3805225653206651,0.8240898264715891,0.3547837204346899,0.2392949949158287,0.7861357360848714,0.7669299631384939,0.69004329004329,0.6171043142578374,0.18267964408467446,0.18351206434316356
0.24884311091207645,0.20605523794186326,0.3912905779889153,0.8118407621640015,0.3569145535904538,0.25319172974805104,0.7923848277866589,0.7722222222222223,0.6960678210678211,0.6252492258091885,0.18820468343451865,0.19151027703306522
0.24772354082698908,0.21451002496175214,0.4104513064133018,0.8080129295678803,0.34977626251864474,0.2659586487402553,0.7991570992588287,0.7765402843601895,0.7022005772005772,0.6305519026004327,0.19189875044168195,0.19508489722966935
0.24496193461710705,0.21587889524116277,0.41900237529691214,0.808863559033685,0.3448753462603878,0.27002598576432046,0.7989827060020346,0.775618746708794,0.7,0.6280914605692954,0.18826892807812148,0.18976764968722074
0.2431706224809673,0.2154762863354538,0.4221694378463975,0.8100544402858115,0.3425314297890475,0.27092983843633484,0.797558494404883,0.7731437598736177,0.6972582972582972,0.6246553260085691,0.18463910571456105,0.1844057193923146
0.2497387669801463,0.22715194460101457,0.43103721298495656,0.8001871384824771,0.34423609631365865,0.2822279968365156,0.8014532771399505,0.7759610321221696,0.7020562770562769,0.629406524413524,0.18852590665253285,0.18833780160857908
0.26272577996715923,0.24293421370480714,0.43452098178939036,0.7844504933650903,0.35233326230556145,0.2945429894927126,0.8060456329021944,0.7807266982622433,0.7082611832611833,0.6382726000084843,0.1937618451061643,0.19579982126899018
0.26556202418271385,0.24728238988646428,0.43689627870150444,0.7805375978223886,0.3536117621990198,0.2983843633487741,0.8066850748437727,0.7814112690889942,0.7104978354978355,0.6403936707249821,0.1959461629886608,0.19924039320822162
0.2637707120465741,0.2468797809807553,0.4400633412509898,0.7818135420210958,0.3511613040698913,0.2992882160207886,0.80264496439471,0.7790679304897314,0.7084776334776335,0.6377635430365248,0.19485400404741257,0.19816800714924038
0.2632482460068667,0.2526773492229648,0.45257323832145696,0.7790064647839401,0.3466865544427871,0.3077618348209241,0.7955820374945501,0.7753291205897841,0.7052308802308802,0.635897000806007,0.1937618451061643,0.19714030384271672
0.27190625466487534,0.26870118367018275,0.4658749010292954,0.7656515821708065,0.34828467930961005,0.3238052197491809,0.7876180787676209,0.773222748815166,0.7053751803751803,0.639460399609723,0.1963637531720793,0.20218945487042003
0.2842215256008359,0.29020049923504315,0.4818685669041965,0.7472779857094252,0.3516940123588323,0.3445938312055135,0.7808458072954513,0.772432859399684,0.708080808080808,0.645908454587876,0.20307731842857601,0.21197497765862378
0.2886998059411852,0.29543441500926004,0.4826603325415678,0.7419190200748556,0.35467717877690175,0.34854818664557674,0.7755849440488302,0.7707477619799895,0.7074314574314573,0.6469689899461248,0.20651440686132794,0.21613047363717605
0.2786236751753993,0.28182623399629597,0.47743467933491696,0.7548485879550868,0.34924355422970377,0.3371370466613942,0.7668943467519256,0.7634544497103739,0.6981601731601731,0.6369575361642558,0.20131059072949795,0.20987488829311884
0.27160770264218537,0.2666881391416378,0.46239113222486145,0.7668424634229329,0.34924355422970377,0.3212066433171393,0.7570701932858596,0.7557661927330174,0.6851370851370852,0.6226615195350614,0.19417943528958273,0.20277033065236819
0.27892222719808923,0.26636605201707064,0.4462391132224862,0.762844504933651,0.3600042616663115,0.3151056377810416,0.7522743787240227,0.7522380200105319,0.6805194805194804,0.617443685572477,0.19305515402653303,0.20397676496872205
0.28907299596954766,0.28013527659231824,0.4519398258115598,0.7498298741068391,0.3652248028979331,0.3268557225172297,0.7509954948408661,0.7523433385992627,0.6807359307359307,0.6189708564883554,0.19713468889531335,0.21072386058981232
0.2916106881624123,0.2886705853933489,0.4631828978622329,0.7438754678462062,0.3633070530577456,0.33679810190938875,0.7499782008429008,0.7529225908372827,0.6813492063492064,0.6198617061892845,0.2001220648228454,0.21559428060768543
0.29452157038363935,0.2898784121104759,0.45954077593032466,0.7415787682885335,0.3666098444491796,0.33634617557338153,0.7489318413021363,0.7512374934175882,0.6790043290043289,0.617443685572477,0.1986444380199801,0.21496872207327972
0.2986266606956262,0.28714067155165474,0.44528899445764064,0.7406430758761484,0.37428084380992965,0.32945429894927125,0.7486993169597442,0.7495787256450764,0.6764069264069263,0.6152377720273194,0.19684558799910057,0.21389633601429844
0.31027018958053443,0.2757871004106611,0.39825811559778307,0.7400476352500851,0.39846580012784993,0.30459835046887357,0.7534079348931841,0.753001579778831,0.6795815295815295,0.6180375853730964,0.19954386303041982,0.21756032171581768
0.3178832661591282,0.27482083903695953,0.38020585906571663,0.7362198026539639,0.40997229916897504,0.2975934922607615,0.7612846969917164,0.7591890468667719,0.6868326118326118,0.6244007975225895,0.20439433362243423,0.222609472743521
0.31131512165994923,0.27047266285530236,0.38558986539984175,0.7422592718611775,0.40347325804389517,0.2963506948367416,0.7646562999564017,0.7615323854660347,0.6884920634920635,0.6260976540957877,0.20551861488548392,0.22269883824843612
0.3013882669055083,0.2575086560914728,0.3811559778305622,0.7547635250085063,0.397933091838909,0.28573042594057163,0.763057695102456,0.7599789362822539,0.6873015873015872,0.6241038476222798,0.20233850502714337,0.2172922252010724
0.29175996417375727,0.23923021177228437,0.365637371338084,0.7699047294998299,0.3962284253142979,0.2674274093322788,0.7649178898415928,0.7609004739336493,0.6868686868686869,0.6224918338777415,0.19874080498538435,0.21134941912421804
0.29489476041200174,0.22360898623077544,0.3282660332541568,0.776284450493365,0.411037715746857,0.24313636877189018,0.7690161313762535,0.7651922064244339,0.6901154401154401,0.6237220548933102,0.1980019915839517,0.20898123324396786
0.2913867741453949,0.2143489813994686,0.3174980205859066,0.7832596121129637,0.41220967398252717,0.23274206304372386,0.777590466501962,0.7725118483412322,0.6992063492063492,0.6300004242141434,0.19947961838681702,0.20884718498659519
0.2674279743245261,0.19526531926886223,0.33079968329374504,0.8069071112623342,0.39058171745152354,0.2240424810755847,0.7812236593518385,0.7718272775144813,0.6965367965367965,0.6243159546939295,0.19292666473932737,0.2007596067917784
0.2398865502313778,0.1740075690474273,0.34726840855106883,0.833872065328343,0.36533134455572125,0.21500395435544006,0.7785786949571283,0.7663770405476567,0.6873376623376624,0.613795443940101,0.1824226655102631,0.18655049151027703
0.23055679952231675,0.16345921571785166,0.34647664291369756,0.8447601224906431,0.3590453867462177,0.2073212066433171,0.7772126144455748,0.7644549763033176,0.6832611832611831,0.6074746532049379,0.17683338151681602,0.17815013404825739
0.23436333781161367,0.16579434737096385,0.3429928741092636,0.8413576046274244,0.36288088642659283,0.20777313297932437,0.7790146780991135,0.7663770405476567,0.6847402597402598,0.6084927671488568,0.1766085252642061,0.17966934763181414
0.24682788475891923,0.1778726145422337,0.34030087094220113,0.8279176590677102,0.3726827189431068,0.2152299175234437,0.7837232960325534,0.7709583991574512,0.6911616161616161,0.6163407287998982,0.18219780925765314,0.18672922252010726
0.2457829526795044,0.1780336581045173,0.34283452098178946,0.8284280367471929,0.3710845940762838,0.21635973336346173,0.7848568522017149,0.7723538704581359,0.6924242424242424,0.6183769566877361,0.18361119141691562,0.18847184986595175
0.23540826989102848,0.16539173846525487,0.33982581155977837,0.840932289894522,0.3646920946089921,0.20630437238730087,0.7818340357506177,0.7685097419694575,0.687049062049062,0.6117167946379333,0.17917831100831969,0.18203753351206436
0.23175100761307657,0.1608825187213141,0.3388756927949327,0.8454406260632868,0.3623481781376518,0.20280194328324486,0.7791600058131085,0.7654818325434438,0.6831529581529581,0.6066262249183388,0.1747133082779223,0.17640750670241287
0.2387669801462905,0.168934696835494,0.33982581155977837,0.8371895202449814,0.3670360110803324,0.2087899672353406,0.7807586106670542,0.7669299631384939,0.6857864357864357,0.6096805667500955,0.17754007259644727,0.17890974084003577
0.24660397074190174,0.1773089620742411,0.3396674584323041,0.828257910854032,0.37278926060089496,0.21466500960343468,0.7850021799157099,0.7726698262243286,0.6932900432900432,0.6181648496160863,0.18328996819890142,0.1859249329758713
0.24160322436184503,0.1740075690474273,0.34378463974663503,0.8328513099693774,0.3677818026848498,0.21387413851542203,0.7870658334544398,0.7736703528172723,0.6944805194805195,0.6202010775039241,0.1848318396453696,0.18762287756925825
0.23473652783997612,0.16482808599726229,0.34030087094220113,0.8416978564137463,0.3640528446622629,0.20619139080329907,0.7847696555733179,0.7703791469194313,0.6900793650793651,0.6149408221270097,0.18094503870739778,0.18203753351206436
0.23473652783997612,0.16386182462356072,0.3384006334125099,0.8421231711466485,0.3646920946089921,0.20483561179527737,0.7824734776921959,0.7682991047919957,0.6870851370851371,0.611886480295253,0.17847161992868846,0.1785522788203753
0.2431706224809673,0.17304130767372575,0.33855898653998423,0.8325110581830556,0.370658427445131,0.21127556208338039,0.782444412149397,0.7694576092680359,0.6910173160173161,0.6163407287998982,0.1826153994410716,0.18248436103663984
0.2505597850425436,0.18511957484499555,0.3466349960411718,0.8218781898604969,0.3732154272320477,0.22268670206756302,0.7835779683185583,0.7728541337546077,0.699062049062049,0.6268612395537267,0.18977867720278824,0.1900804289544236
0.2501865950141812,0.18149609469361463,0.34030087094220113,0.8240047635250085,0.3751331770722352,0.21782849395548523,0.7814271181514315,0.7752238020010532,0.7095959595959596,0.6400118779960124,0.19344062188815006,0.19173369079535296
0.24854455888938648,0.16933730574120298,0.3198733174980206,0.8314052398775094,0.3807798849350096,0.2020110721952322,0.7760790582764133,0.7764612954186414,0.7174603174603174,0.6479022610613839,0.1912241816838521,0.18605898123324396
0.24690252276459174,0.1649086077784041,0.3146476642913698,0.8346376318475672,0.38141913488173873,0.1970398824991526,0.772765586397326,0.7749341758820432,0.7163059163059162,0.6466296186314853,0.18820468343451865,0.18168007149240392
0.25533661740558294,0.17207504630002415,0.31100554235946154,0.8261313371895204,0.3885574259535478,0.20076827477121226,0.7734631594245023,0.7775934702474987,0.722979797979798,0.6556653798837654,0.1920272397288876,0.1859249329758713
0.2792207792207792,0.18503905306385376,0.2856690419635788,0.8056311670636271,0.41423396548050284,0.2008812563552141,0.7686964104054643,0.782490784623486,0.745021645021645,0.6960081449115514,0.20927692653625005,0.20031277926720287
0.3038513210927004,0.20557210725501246,0.27379255740300873,0.78079278666213,0.4357553803537183,0.21093661733137503,0.7475366952477838,0.7662190626645603,0.7549783549783549,0.7542951682009078,0.24300536442774084,0.2256032171581769
0.3157934020002986,0.2456719542636283,0.32731591448931124,0.7528070772371556,0.4262731728105689,0.25827590102813236,0.7012934166545559,0.70202738283307,0.7161976911976912,0.8011708310355068,0.2873341685137002,0.259159964253798
0.34296163606508434,0.3275626056848378,0.430720506730008,0.6940285811500511,0.41082463243128065,0.3526155236696419,0.6291818049702078,0.6,0.6433261183261183,0.8539006490476394,0.35459831036587325,0.3148346738159071
0.41476339752201824,0.4485868427409615,0.5163895486935868,0.5891459680163321,0.43330492222458983,0.46796972093548744,0.5373056241825316,0.4981832543443918,0.5749278499278498,0.9300895091842364,0.4593170794385018,0.40822162645218946
0.49544708165397816,0.5731540381673244,0.5901821060965955,0.4774583191561756,0.46601321116556577,0.5817421760253078,0.4447318703676791,0.4041337546076882,0.4862554112554113,0.968820260467484,0.5688863191031448,0.5146112600536192
0.5835199283475145,0.7049681938964489,0.6625494853523358,0.35760462742429394,0.5045812912848924,0.7000338944752006,0.33041709053916585,0.2962875197472354,0.37128427128427127,0.9813769991091505,0.6919148116025826,0.6362377122430742
0.6898044484251381,0.82631451807714,0.6758511480601742,0.2329023477373257,0.5759642020029831,0.7899672353406395,0.20622002615898843,0.19218009478672984,0.2626623376623377,0.9965214440249438,0.8333815168160355,0.7725201072386059
0.7884012539184954,0.9014413398824382,0.6142517814726842,0.13712146988771698,0.6670573194118901,0.8205852446051292,0.11957564307513442,0.13259610321221693,0.1816378066378066,0.9655962329784076,0.9283351000610324,0.8761394101876676
0.864308105687416,0.9038569933166921,0.4579572446555821,0.0925484858795509,0.7738120605156616,0.7665800474522652,0.11015840720825457,0.15110584518167458,0.16396103896103897,0.878123276630043,0.9342456072724936,0.9150134048257372
0.8504254366323333,0.8363797407198648,0.35471100554235946,0.13610071452875136,0.7986362667803111,0.6824087673709184,0.16081964830693213,0.1887572406529752,0.11872294372294367,0.6510414457218004,0.8270855417429572,0.8750670241286863
0.7901925660546351,0.7566631773894839,0.3257323832145685,0.21257230350459339,0.7653952695503942,0.6160885775618574,0.22389187618078762,0.22522380200105316,0.06143578643578642,0.3840410639290714,0.6809610998682984,0.8038427167113493
0.7267502612330199,0.6653514775746839,0.28091844813935074,0.29695474651241915,0.7351374387385468,0.5360976160885775,0.2953349803807586,0.27798841495523957,0.05425685425685432,0.19522334874644723,0.5561337573479811,0.7287756925826632
0.6750261233019853,0.6085836218697157,0.2788598574821853,0.356328683225587,0.6990198167483486,0.4955372274319285,0.3644819066996076,0.34415481832543443,0.10198412698412697,0.11852543163789081,0.46050560534515433,0.6616175156389634
0.6141215106732348,0.597713181415573,0.3866983372921615,0.39681864579789056,0.6192201150649903,0.526381199864422,0.4392384827786659,0.4143233280674039,0.18795093795093798,0.1571289186781487,0.3920208152645273,0.5985701519213584
0.5250037319002836,0.5695305580159433,0.5201900237529691,0.462487240558013,0.5106541657788195,0.5542876511128686,0.5194012498183403,0.4875987361769353,0.2901875901875902,0.2454078818987825,0.3400147762680287,0.5275245755138517
0.41073294521570386,0.4946453015540704,0.6153602533650041,0.567199727798571,0.39718730023439164,0.5356456897525703,0.6038947827350675,0.5686413902053712,0.4046897546897547,0.3484070758919102,0.285406829205615,0.4327971403038427
0.30706075533661736,0.4004348176181658,0.650197941409343,0.6759952364749915,0.31142126571489454,0.48197943735171156,0.6769946228745822,0.6450500263296471,0.512049062049062,0.4470792856233827,0.23860460634094632,0.33672922252010723
0.24951485296312884,0.30847894355423144,0.5914489311163896,0.7574004763525009,0.2901129341572555,0.3964523782623432,0.7323644819066996,0.7055292259083729,0.5959235209235209,0.5214864463581216,0.19912627284700138,0.2571939231456658
0.22794446932377965,0.2428536919236654,0.5081551860649248,0.8042701599183396,0.3026848497762625,0.32075471698113206,0.7740444702804825,0.7511848341232228,0.6577922077922078,0.5742162643702542,0.1736532716584755,0.20281501340482572
0.22301836094939545,0.20323697560190035,0.4406967537608868,0.8280877849608712,0.3218623481781377,0.2688961699243023,0.8002906554279902,0.7802527646129542,0.6968253968253968,0.6088321384634965,0.1683209662394398,0.18235031277926717
0.21846544260337364,0.17771157097995005,0.4001583531274743,0.8440796189179993,0.3323034306413808,0.23658343689978534,0.8137189362011334,0.7953396524486571,0.7168470418470418,0.6263946039960973,0.1654620795991134,0.17234137622877568
0.20211971936109865,0.15146147032772364,0.3832145684877277,0.8673018033344676,0.32633709780524184,0.21206643317139307,0.8193576515041419,0.8012111637704055,0.7249639249639249,0.6309336953294024,0.15977642864026212,0.16036639857015192
0.19264069264069264,0.14010789918673003,0.38099762470308796,0.8787002381762504,0.32037076496910294,0.20325386961925207,0.8229036477256212,0.8057135334386519,0.730988455988456,0.6356848937343572,0.15550415984067328,0.15205540661304737
0.20092551127033886,0.143328770432402,0.36975455265241497,0.8722354542361347,0.33006605582782866,0.2015591458592249,0.8307513442813544,0.8138493944181148,0.742099567099567,0.6457387689305563,0.15704603128714145,0.15357462019660412
0.20734437975817285,0.1467912070214993,0.36294536817102135,0.8667914256549847,0.33688472192627317,0.2015591458592249,0.8367388460979509,0.8214849921011058,0.7529942279942279,0.6546048445255165,0.16064373132890047,0.15737265415549598
0.20264218540080609,0.13632337547306547,0.3523357086302454,0.8749574685267099,0.33709780524184957,0.19037396904304593,0.8391222206074699,0.8245918904686677,0.7586219336219335,0.6592287786874815,0.16077222061610613,0.15612153708668455
0.19219286460665772,0.12021901924470572,0.34283452098178946,0.8894181694453897,0.33283613893032177,0.17579934470681277,0.8370876326115391,0.8228804634017903,0.7572510822510822,0.6565986509990244,0.15585750538048893,0.14964253798033958
0.18793849828332584,0.11595136484419039,0.34330958036421216,0.894181694453896,0.32963988919667586,0.1729748051067676,0.837000435983142,0.8231700895208004,0.7574675324675325,0.6563017010987147,0.15287012945295683,0.14620196604110813
0.19376026272577998,0.12223206377325069,0.3434679334916865,0.8875467846206194,0.3337950138504155,0.1773810868828381,0.8404883011190234,0.8271458662453923,0.7645382395382395,0.6640223985067664,0.15611448395490027,0.1497319034852547
0.20346320346320346,0.1323778081971173,0.34267616785431515,0.8765736645117388,0.34093330492222457,0.18415998192294658,0.844470280482488,0.8312006319115324,0.7709235209235209,0.6714461460145081,0.15993704024926922,0.15442359249329757
0.2013733393043738,0.13108945969884855,0.34473475851148067,0.878445049336509,0.33880247176646067,0.18404700033894475,0.8456910332800465,0.8329120589784098,0.7734848484848486,0.6745004878462649,0.15977642864026212,0.1530384271671135
0.1920435885953127,0.12255415089781786,0.3477434679334917,0.8883123511398436,0.33102493074792244,0.17918879222686707,0.8435692486557186,0.8308846761453397,0.7712842712842712,0.6706825605565689,0.15515081430085767,0.1468722073279714
0.1831616659202866,0.1198969321201385,0.36120348376880446,0.8947771350799593,0.3201576816535265,0.18212631341091406,0.842086905972969,0.8288572933122696,0.7696248196248195,0.6676282187248123,0.1511355240756802,0.14164432529043788
0.18831168831168832,0.12947902407601258,0.3692794932699921,0.8867812181013951,0.32122309823140843,0.19161676646706588,0.8455747711088505,0.8328067403896787,0.775,0.672591524201417,0.1541871446468151,0.143923145665773
0.20428422152560083,0.14365085755696916,0.36326207442596997,0.8701939435182034,0.33454080545493287,0.1995254773471924,0.849382357215521,0.8375460768825698,0.7823593073593074,0.6803546430237986,0.15884488130802094,0.1495531724754245
0.20279146141215104,0.14260407440212577,0.36437054631828986,0.8716400136100715,0.33315576390368634,0.19918653259518693,0.8507775032698736,0.8387572406529753,0.7858585858585858,0.6834089848555551,0.15887700362982238,0.14892761394101878
0.1882370503060158,0.13084789435542313,0.3721298495645289,0.8861007145287513,0.3201576816535265,0.1936504349790984,0.8486266531027467,0.8363349131121643,0.7817099567099567,0.6778517795783312,0.15315923034916964,0.14159964253798032
0.18525153007911627,0.12698284886061684,0.37086302454473485,0.889843484178292,0.3184530151289154,0.19048695062704776,0.8474640313907862,0.8359136387572406,0.7816378066378066,0.6759852373478131,0.14981850888182197,0.13744414655942808
0.19368562472010747,0.13608181012964005,0.37086302454473485,0.8802313712146989,0.3245258896228425,0.19681391933114906,0.851940124981834,0.8404423380726698,0.7895382395382394,0.684427098799474,0.15315923034916964,0.14151027703306523
0.2001044932079415,0.14389242290039458,0.37260490894695175,0.8724055801292957,0.32846793096100574,0.2029149248672466,0.8572591193140532,0.8460242232754082,0.7968614718614718,0.692656853179485,0.15611448395490027,0.14436997319034853
0.1952530228392297,0.13906111603188664,0.3735550277117973,0.8777645457638653,0.3247389729384189,0.1999774036831996,0.8583345443976166,0.8474723538704582,0.7997474747474748,0.6958384592542317,0.15659631878192157,0.14280607685433422
0.18443051201671892,0.12770754489089298,0.3740300870942201,0.8899285471248723,0.31685489026209246,0.1920686928030731,0.85676500508647,0.84565560821485,0.7974747474747474,0.6924871675221652,0.15216343837332563,0.13766756032171582
0.17950440364233466,0.12295675980352684,0.37513855898653997,0.8952875127594421,0.31291284892392923,0.1891311716190261,0.8553407934893185,0.8452343338599262,0.7981601731601731,0.6924023246935054,0.1499148758472262,0.135656836461126
0.18808777429467086,0.13334406957081893,0.37735550277117985,0.8849098332766246,0.31823993181333904,0.19726584566715624,0.8614445574771109,0.8515007898894155,0.8067821067821068,0.7007169219021763,0.15283800713115545,0.13820375335120644
0.19301388266905506,0.1414767694661406,0.3828978622327791,0.8777645457638653,0.31994459833795014,0.2049485933792792,0.8682168289492807,0.8584518167456556,0.8159451659451659,0.7096678403257966,0.15556840448427614,0.14209115281501342
0.18696820420958352,0.1340687656010951,0.3811559778305622,0.8850799591697858,0.3162156403153633,0.19918653259518693,0.8673157971225113,0.8593470247498683,0.8177489177489178,0.7096678403257966,0.15152099193729723,0.13811438784629132
0.1733094491715181,0.12360093405266125,0.3895486935866984,0.8984348417829194,0.30364372469635625,0.19478025081911643,0.8668216828949281,0.8582938388625593,0.8162337662337662,0.7060620201077504,0.14512864989881466,0.1303395889186774
0.1677115987460815,0.11707866978017557,0.38859857482185284,0.9050697516161961,0.29991476667376943,0.18980906112303692,0.8681005667780846,0.860057925223802,0.8195526695526696,0.7069528698086794,0.1413703382480486,0.1258266309204647
0.17286162113748318,0.12207102021096707,0.38749010292953295,0.8995406600884657,0.30396334966972083,0.19297254547508758,0.873884609795088,0.867219589257504,0.8294372294372293,0.7158613668179699,0.14394012399216216,0.1305183199285076
0.18219137184654427,0.13278041710282634,0.38875692794932715,0.888567539979585,0.31024930747922436,0.2009942379392159,0.8795523906408953,0.8749341758820433,0.84004329004329,0.7254486064565393,0.14753782403392118,0.13507596067917785
0.1780862815345574,0.12931798051372895,0.3906571654790183,0.892735624362028,0.30673343277221393,0.19918653259518693,0.8825752070919924,0.8781727224855187,0.8456709956709957,0.7292241123319053,0.14567472936943882,0.1320822162645219
0.16801015076877146,0.12013849746356392,0.39398258115597784,0.9032834297380062,0.2983166418069465,0.1939893797311039,0.8825752070919924,0.8795418641390205,0.8466450216450216,0.7269757773724177,0.13822235071150943,0.12189454870420018
0.16248693834900732,0.11925275787100409,0.4039588281868568,0.9069411364409663,0.29107180907734925,0.1969269009151509,0.8828658625199826,0.8815429173249077,0.8507575757575757,0.7280787341449964,0.13295428993607658,0.1147899910634495
0.1702492909389461,0.13004267654400517,0.40870942201108473,0.89673358285131,0.2950138504155124,0.20619139080329907,0.8887080366225839,0.8882833070036861,0.8599206349206349,0.7361812242820176,0.13353249172850215,0.11630920464700627
0.18032542170473204,0.1427651179644094,0.41235154394299295,0.8843143926505614,0.30098018325165143,0.21635973336346173,0.8957709635227438,0.8981832543443917,0.8711038961038962,0.7441988715903789,0.1347852622787575,0.11854334226988382
0.17495148529631285,0.14365085755696916,0.42549485352335714,0.8868662810479755,0.29277647560196035,0.2216698678115467,0.901002761226566,0.9041864139020537,0.8806277056277056,0.7504348194968821,0.13343612476309788,0.11613047363717606
0.16151664427526496,0.13390772203881154,0.4348376880443389,0.8997107859816265,0.27999147666737695,0.2181674387074907,0.9024560383665166,0.9063981042654028,0.8839105339105339,0.7494591269672931,0.12620860235777842,0.10804289544235925
0.15576951783848333,0.1289958933891618,0.4373713380839273,0.9055801292956788,0.27509056040911994,0.21568184385945088,0.9044906263624473,0.909768299104792,0.889033189033189,0.750562083739872,0.11968777103209019,0.10160857908847185
0.15853112404836542,0.13801433287704326,0.4492478226444973,0.8992854712487242,0.27295972725335604,0.22618913117161904,0.9132393547449498,0.9198788836229593,0.9015873015873015,0.7619734441946295,0.1208441746169413,0.10411081322609472
0.16651739065532167,0.14952894758032048,0.4551068883610451,0.8886526029261654,0.27668868527594287,0.2363574737317817,0.9225403284406336,0.9306477093206952,0.9168831168831169,0.7748695541509354,0.12270726928142367,0.10598748882931189
0.15659053590088073,0.14429503180610356,0.4657165479018211,0.8969887716910515,0.26614106115491154,0.23647045531578353,0.9263769800901032,0.936361242759347,0.9258297258297258,0.7789844313409411,0.1177283094022036,0.1011170688114388
0.13822958650544856,0.13269989532168452,0.4818685669041965,0.9135760462742429,0.2474962710419774,0.23409784205174555,0.928266240372039,0.9398630858346498,0.9295093795093795,0.776311882238154,0.10789887893096914,0.08909740840035746
0.1308404239438722,0.13431033094452052,0.5008709422011085,0.9169785641374618,0.2358832303430641,0.24200655293187204,0.933323644819067,0.9447604002106371,0.9355699855699855,0.7788147456836212,0.10083196813465678,0.08141197497765862
0.13494551425585907,0.14687172880264113,0.5167062549485353,0.9079618917999319,0.23353931387172383,0.2564681956841035,0.9412876035459962,0.95376513954713,0.948088023088023,0.7883595639078608,0.09912948507918154,0.08185880250223414
0.13442304821615164,0.1558096465093808,0.535391923990499,0.9036236815243281,0.22682718943106753,0.26934809626030953,0.9496584798721117,0.9630068457082674,0.9606782106782107,0.7962499469732321,0.0981015707815361,0.08221626452189455
0.1244961934617107,0.15258877526370884,0.5501187648456058,0.9109390949302484,0.21478798210100147,0.27239859902835833,0.9541345734631593,0.9670352817272247,0.9656565656565657,0.7954439401009631,0.09151649481224503,0.07605004468275246
0.10822510822510821,0.14397294468153635,0.5675376088677753,0.9247192922762846,0.19731515022373747,0.272624562196362,0.9536404592355763,0.9670616113744075,0.9655483405483405,0.7895897849234293,0.08040217146895377,0.0640750670241287
0.10359755187341393,0.14799903373862633,0.5854315122723674,0.9252296699557673,0.1880460259961645,0.28177607050050846,0.955616916145909,0.9688256977356504,0.9669552669552669,0.788189878250541,0.07272493655841443,0.056925826630920474
0.10986714434990297,0.16345921571785166,0.6025336500395884,0.9134909833276625,0.18676752610270614,0.29872330810077957,0.9604417962505449,0.9743022643496577,0.9746753246753246,0.7942561404997244,0.0721788570877903,0.05907059874888293
0.10852366024779818,0.1745712215154199,0.6272367379255741,0.9083872065328344,0.17739186021734496,0.3153316009490453,0.9673884609795088,0.9798051606108478,0.9847763347763347,0.8021889449794257,0.07339950531624426,0.06219839142091153
0.1006866696521869,0.171752959175457,0.6381631037212985,0.9143416127934673,0.1682292776475602,0.31725228787707604,0.967882575207092,0.9788572933122697,0.9812049062049062,0.7971407966741612,0.06623622755452763,0.05679177837354781
0.08926705478429617,0.16466704243497868,0.6487727632620744,0.924634229329704,0.15640315363307053,0.31612247203705796,0.9636390059584362,0.9745918904686677,0.9764069264069264,0.789971577652399,0.05798079085156276,0.04888293118856122
0.08546051649499925,0.16523069490297126,0.6577988915281078,0.9265056141544743,0.15075644577029618,0.3197378827251158,0.9615172213341084,0.9721695629278567,0.9735209235209235,0.7858142790480636,0.05412611223539237,0.04530831099195711
0.0929243170622481,0.18085192044448023,0.6726840855106889,0.9140013610071454,0.15096952908587255,0.33600723082137607,0.9636680715012352,0.9737493417588204,0.9778499278499277,0.7904806346243584,0.057081365841123,0.04968722073279715
0.09964173757277206,0.19381592720830987,0.6839271575613619,0.9032834297380062,0.1520349456637545,0.34911309456558576,0.9647144310419997,0.9749078462348604,0.9806998556998556,0.7945530904000341,0.06071118820468344,0.05563002680965148
0.1025526197939991,0.19413801433287706,0.6783847980997626,0.9014971078598163,0.15597698700191776,0.3473053892215569,0.9597732887661676,0.969536598209584,0.9742063492063492,0.7896746277520893,0.06055057659567632,0.05594280607685433
0.09344678310195552,0.18511957484499555,0.6799683293745052,0.9114494726097313,0.14894523758789685,0.3415433284374647,0.9511408225548611,0.9596629805160611,0.9637806637806637,0.7802570737708396,0.05804503549516558,0.052412868632707776
0.08889386475593372,0.18624687978098076,0.6918448139350754,0.9134909833276625,0.1417004048582996,0.3465145181335442,0.9449789274814707,0.9518957345971564,0.9554834054834054,0.776311882238154,0.06071118820468344,0.054915102770330654
0.1070309001343484,0.19904984298252681,0.6785431512272367,0.8963082681184077,0.1590666950777754,0.35080781832561286,0.9400668507484377,0.946024223275408,0.9495310245310244,0.7770330462817632,0.06887025794224406,0.06514745308310992
0.11949544708165398,0.209759239874386,0.673317498020586,0.8835488261313373,0.1698274025143831,0.35645689752570325,0.9341084144746403,0.9385202738283306,0.9416666666666667,0.777117889110423,0.07924576788410265,0.07685433422698838
0.12374981340498581,0.21145019727836378,0.6674584323040381,0.8803164341612795,0.1748348604304283,0.3555530448536889,0.9224240662694376,0.9259083728278041,0.9263347763347762,0.769736563017011,0.08573447688798945,0.0836461126005362
0.129123749813405,0.20967871809324426,0.652573238321457,0.8781898604967676,0.18357127636906032,0.349000112981584,0.9077750326987357,0.9098736176935228,0.9051226551226551,0.7581555169049337,0.09013523497478398,0.08829311885612155
0.13852813852813853,0.21507367742974473,0.6432304038004752,0.8699387546784622,0.19347965054336244,0.3494520393175912,0.8946955384391803,0.8947340705634544,0.8866161616161616,0.7491621770669834,0.0982621823905432,0.09655942806076855
0.15711300194058817,0.23037281584668654,0.6340459224069676,0.8512249064307589,0.2098870658427445,0.3569088238617105,0.8869931695974422,0.8849394418114798,0.8743867243867243,0.7470411063504858,0.11323118435000482,0.1131367292225201
0.174055829228243,0.23914968999114264,0.6152019002375299,0.8370193943518204,0.22821223098231405,0.3563439159417015,0.8798139805260863,0.8750394944707741,0.8615440115440115,0.7449624570483181,0.12755773987343808,0.12998212689901698
0.18166890580683684,0.23504307915291084,0.5908155186064925,0.8348077577407282,0.24184956317920306,0.34481979437351706,0.8669088795233251,0.8600842548709847,0.841125541125541,0.7323208755779919,0.13674472390864414,0.13806970509383376
0.18301238990894164,0.22666881391416377,0.5716547901821062,0.8384654644436883,0.24930747922437674,0.3320528753813129,0.8527539601802063,0.8436808846761454,0.8186147186147186,0.7168370593475587,0.1422055186148855,0.1420017873100983
0.19450664278250485,0.22844029309928338,0.5507521773555029,0.8309799251446071,0.2645429362880886,0.32583888826121343,0.8433076587705275,0.8319905213270142,0.800036075036075,0.7059771772790906,0.1499148758472262,0.14968722073279714
0.20891177787729515,0.23447942668491825,0.5322248614410136,0.8195814903028241,0.28105689324525884,0.32346627499717545,0.8391222206074699,0.8248551869404951,0.7893939393939393,0.7008441861451662,0.1609007099033118,0.1624218051831993
0.22167487684729065,0.23898864642885903,0.5138558986539985,0.8098843143926506,0.29639889196675895,0.32007682747712124,0.8350239790728091,0.8190100052659294,0.7812770562770562,0.6976201586560896,0.17085862966175194,0.17457551385165326
0.22301836094939545,0.2313390772203881,0.49596199524940626,0.8132017693092889,0.3033240997229916,0.30832674274093325,0.8269146926318849,0.8104791995787256,0.7673881673881673,0.68816018326051,0.17580546721917062,0.18016085790884717
0.21831616659202863,0.21918028826797648,0.48202692003167064,0.8223035045933992,0.3047091412742382,0.2948819342447181,0.8177009155645981,0.7984202211690363,0.7500721500721501,0.6739490094599754,0.17574122257556776,0.17797140303842718
0.2218241528586356,0.2182945486754167,0.4728424386381631,0.8207723715549506,0.31024930747922436,0.2909275788046548,0.8119750036331929,0.7913112164296998,0.7395743145743146,0.666016204980274,0.1782146413542771,0.1794012511170688
0.23294521570383636,0.2250583782913278,0.46254948535233575,0.8108200068050359,0.32164926486256123,0.29205739464467295,0.8109286440924284,0.790810953133228,0.7374098124098124,0.666016204980274,0.18650220037904341,0.18829311885612152
0.24279743245260485,0.22980916337869392,0.4509897070467142,0.8027390268798913,0.3326230556147453,0.29115354197265847,0.8102020055224531,0.7887572406529751,0.7342352092352091,0.6653374623509949,0.1936012334971572,0.19624664879356568
0.23839379011792802,0.22119333279652148,0.44338875692794943,0.8097992514460702,0.33198380566801616,0.2824539600045193,0.807498910042145,0.7848077935755661,0.7287518037518037,0.659652992830781,0.19491824869101537,0.19718498659517428
0.22884012539184953,0.2063773250664305,0.43452098178939036,0.8230690711126235,0.32814830598764116,0.2688961699243023,0.8014532771399505,0.7785413375460768,0.7192279942279942,0.6497688032919018,0.19189875044168195,0.1934763181411975
0.23078071353933424,0.20565262903615428,0.4289786223277911,0.8223885675399796,0.331344555721287,0.26641057507626253,0.7980235430896672,0.7751711427066877,0.7143939393939394,0.6448054978152973,0.19096720310944074,0.19159964253798034
0.2412300343334826,0.21459054674289396,0.42454473475851157,0.8116706362708405,0.3404005966332836,0.27104282002033664,0.8002034587995931,0.7774091627172196,0.7165945165945166,0.6484113180333433,0.19674922103369633,0.19839142091152817
0.24809673085535153,0.2178114179885659,0.41631037212984967,0.8060564817965294,0.3479650543362454,0.2704779121003276,0.802296177881122,0.7799368088467614,0.719083694083694,0.6518050311797396,0.20217789341813627,0.20527256478999106
0.24324526048663977,0.2103228923423786,0.4117181314330958,0.8127764545763867,0.34615384615384615,0.26347305389221554,0.8010463595407644,0.7788046340179042,0.7164502164502163,0.6490476392482926,0.20031479875365393,0.20299374441465595
0.23212419764143902,0.1978420162653998,0.41076801266825025,0.825706022456618,0.3384828467930961,0.254434527172071,0.7964249382357216,0.774565560821485,0.7103896103896103,0.6425995842701396,0.19495037101281681,0.19544235924932976
0.23175100761307657,0.19711732023512357,0.41013460015835324,0.8263014630826813,0.3384828467930961,0.2536436560840583,0.795146054352565,0.7734597156398104,0.7092352092352092,0.6417087345692106,0.19321576563554013,0.19352100089365504
0.24272279444693234,0.20814880425155002,0.4085510688836105,0.8142225246682546,0.34679309610057535,0.260874477460174,0.7995640168580148,0.7780937335439705,0.7144300144300143,0.6463326687311756,0.19742378979152614,0.19910634495084897
0.2464546947305568,0.211369675497222,0.4068091844813936,0.8103946920721335,0.35009588749200937,0.2624562196361993,0.8028774887371022,0.7819641916798314,0.7197691197691197,0.6527383022949986,0.2015675693039093,0.20393208221626452
0.24518584863412446,0.2054110636927289,0.3979414093428346,0.814307587614835,0.35212017898998504,0.2551124166760818,0.8007266385699753,0.7805423907319642,0.7186868686868686,0.6519322954227295,0.20015418714464683,0.20169794459338694
0.23316912972085385,0.19059505596263793,0.3942992874109264,0.8289384144266758,0.3447688046025996,0.24347531352389554,0.7968899869205057,0.7766719325961032,0.7126984126984126,0.6446782335723074,0.1942436799331856,0.1945040214477212
0.23316912972085385,0.19067557774377972,0.3944576405384007,0.8289384144266758,0.3446622629448114,0.24358829510789737,0.7965993314925156,0.7761716692996313,0.7123737373737373,0.643193484070759,0.19302303170473165,0.19401251117068813
0.24257351843558742,0.19985506079394474,0.3925574030087095,0.8187308608370194,0.3520136373321968,0.24935035589198964,0.8008138351983722,0.7800947867298578,0.7172799422799423,0.6499384889492217,0.19710256657351194,0.19964253798033957
0.24749962680997162,0.20267332313390773,0.3878068091844814,0.8143926505614154,0.35723417856381845,0.2495763190599932,0.8037785205638716,0.7840968931016324,0.7224025974025974,0.6563865439273746,0.20005782017924256,0.20299374441465595
0.24205105239587998,0.19518479748772044,0.3843230403800476,0.8214528751275944,0.3544640954613254,0.24313636877189018,0.8028484231943032,0.7826487625065823,0.7205988455988456,0.6535018877529377,0.19700619960810767,0.19843610366398573
0.232273473652784,0.18439487881471942,0.3841646872525733,0.8326811840762164,0.3475388877050927,0.23556660264376905,0.7983432640604563,0.7781200631911532,0.7158008658008659,0.6464599329741654,0.19215572901609326,0.1913762287756926
0.23257202567547394,0.18850148965295116,0.3912905779889153,0.8303844845185437,0.3453015128915406,0.24087673709185403,0.79735503560529,0.7779620853080569,0.7152236652236652,0.6465447758028253,0.1905496129260223,0.19057193923145663
0.24018510225406775,0.20122393107335537,0.40031670625494853,0.8193263014630827,0.34775197102066907,0.2530787481640492,0.8013079494259555,0.7808056872037915,0.718073593073593,0.6515505026937599,0.1933121326009444,0.1938337801608579
0.24481265860576204,0.20452532410016908,0.39699129057798904,0.8149880911874787,0.3522267206477733,0.25420856400406733,0.8033716029646853,0.782596103212217,0.7214285714285714,0.6548593730114962,0.19549645048344094,0.1967828418230563
