Lead I,Lead II,Lead III,aVR,aVL,aVF,V1,V2,V3,V4,V5,V6
0.2751156889087923,0.2191802882679764,0.3615201900237531,0.7898945219462402,0.3857873428510547,0.2518359507400293,0.8033716029646853,0.7800421274354924,0.7048701298701299,0.625758282781148,0.1898750441681924,0.1984361036639857
0.2722794446932378,0.2149931556486029,0.3593032462391133,0.7938074174889419,0.3845088429575964,0.2481075584679697,0.8026158988519111,0.7800947867298578,0.7045093795093795,0.6255885971238282,0.1899392888117953,0.1989276139410187
0.2632482460068667,0.2054110636927289,0.3596199524940617,0.8040149710785982,0.3779032601747283,0.2415546265958648,0.7986048539456474,0.7761716692996313,0.6995310245310244,0.6188435922453654,0.184253637852944,0.1929401251117068
0.2595909837289147,0.1977614944842579,0.3523357086302454,0.810139503232392,0.3777967185169401,0.2335329341317365,0.7955820374945501,0.7735123749341758,0.6955627705627705,0.613710601111441,0.1793068002955253,0.1881590705987489
0.264069264069264,0.2028343666961913,0.3528107680126682,0.8048656005444029,0.3807798849350096,0.2372613264037961,0.7993896236012208,0.7756977356503423,0.6981962481962481,0.6175285284011369,0.1824869101538659,0.1917783735478105
0.2695924764890282,0.2138658507126178,0.3627870150435471,0.7958489282068731,0.3813125932239505,0.248559484803977,0.8033134718790874,0.7795155344918379,0.7034992784992785,0.6231281550926908,0.1877549709292987,0.1982126899016979
0.2713837886251679,0.2120138497463564,0.3553444180522566,0.7958489282068731,0.3851480929043256,0.2446051293639136,0.8030809475366952,0.7792259083728278,0.7026334776334776,0.6217282484198023,0.187626481642093,0.19781054512958
0.2615315718763994,0.1992914083259521,0.3513855898653998,0.8081830554610412,0.3795013850415512,0.2342108236357473,0.7988083127452404,0.7741442864665613,0.6965007215007215,0.6149408221270097,0.1830972342680929,0.1925379803395889
0.2574264815644125,0.1968757548916982,0.3551860649247823,0.8117556992174209,0.3752397187300234,0.2338718788837419,0.7961924138933294,0.772722485518694,0.6946248196248196,0.6123531158528827,0.1813947512126176,0.1899910634495085
0.2664576802507837,0.2069409775344231,0.3558194774346793,0.8013780197346038,0.3815256765395269,0.2412156818438595,0.7984885917744514,0.774670879410216,0.6966450216450216,0.6136681796971112,0.1832578458771,0.1925379803395889
0.2783997611583818,0.2183750704565585,0.3531274742676168,0.7884484518543723,0.3909013424248881,0.2483335216359733,0.8016276703967447,0.7790416008425487,0.7018759018759019,0.6203707631612438,0.1879155825383058,0.1970509383378016
0.2757874309598447,0.2149126338674611,0.3518606492478227,0.7918509697175911,0.3894097592158533,0.2453960004519263,0.8017148670251417,0.7789889415481833,0.7018759018759019,0.6198617061892845,0.1871125244932704,0.194816800714924
0.261456933870727,0.2042837587567437,0.3612034837688044,0.8056311670636271,0.376092051992329,0.2412156818438595,0.7972097078912949,0.7743812532912059,0.6951659451659451,0.6115471089806135,0.1812983842472134,0.1878016085790884
0.25794894760412,0.1991303647636686,0.3586698337292161,0.8103096291255529,0.374493927125506,0.2366964184837871,0.7946810056677808,0.7710637177461822,0.6909451659451659,0.6054384253171001,0.1787285985030998,0.1852993744414655
0.2665323182564562,0.2055721072550124,0.3529691211401425,0.8020585233072474,0.3824845514596207,0.2391820133318268,0.7968318558349077,0.7738020010531859,0.6954184704184704,0.6111653162516439,0.1831614789116957,0.1909740840035746
0.2723540826989102,0.2174088090828569,0.363895486935867,0.7924464103436544,0.3830172597485617,0.251497005988024,0.8003487865135881,0.7777251184834123,0.7016955266955266,0.6192678063886651,0.1884295396871285,0.1974977658623771
0.2695924764890282,0.2124164586520653,0.3599366587490103,0.7966144947260974,0.3822714681440443,0.2465258162919443,0.8010463595407644,0.7780147446024223,0.701010101010101,0.6190556993170153,0.1877870932511001,0.197006255585344
0.2590685176892073,0.2010628875110717,0.359778305621536,0.8086083701939436,0.3749200937566588,0.238504123827816,0.7977910187472751,0.7744075829383886,0.6957431457431458,0.6136257582827812,0.1832257235552986,0.1906613047363717
0.2549634273772204,0.2003381914807955,0.3672209026128266,0.8114154474310992,0.3694864692094609,0.2406507739238503,0.7954367097805551,0.7718272775144813,0.6932900432900432,0.6104017307937047,0.1794031672609296,0.1858802502234137
0.2667562322734736,0.2094371527498188,0.3600950118764845,0.7998468866961552,0.3802471766460686,0.2444921477799118,0.7981398052608633,0.7744602422327541,0.6969336219336218,0.6141348152547406,0.1815874851434261,0.189142091152815
0.2750410509031198,0.2129801111200579,0.3494853523357086,0.7932119768628786,0.3897293841892179,0.243249350355892,0.8015404737683476,0.7779094260136914,0.7004689754689755,0.6189708564883554,0.185249429828788,0.194816800714924
0.2715330646365129,0.2078267171269828,0.3467933491686461,0.7979755018713849,0.388131259322395,0.2386171054118178,0.8018020636535388,0.7779094260136914,0.7009018759018759,0.6179951639587664,0.1859882432302206,0.1956657730116175
0.2575757575757575,0.1909976648683469,0.3433095803642121,0.8148179652943179,0.379394843383763,0.22562422325161,0.7979944775468681,0.773117430226435,0.6942279942279942,0.6106562592796845,0.181651729787029,0.1888739946380697
0.2536199432751156,0.1893872292455109,0.348535233570863,0.8179652943177952,0.3748135520988706,0.2263021127556208,0.7939253015550065,0.7706424433912585,0.6906926406926407,0.608365502905867,0.180045613696958,0.1870866845397676
0.2631736080011942,0.2018681053224897,0.3529691211401425,0.8058863559033685,0.3801406349882804,0.2365834368997853,0.797180642348496,0.7737230121116376,0.6955627705627705,0.6139651295974209,0.1844784941055539,0.1924486148346738
0.271234512613823,0.2104839359046622,0.352652414885194,0.7967846206192584,0.385893884508843,0.2425714608518811,0.7998256067432059,0.7763823064770932,0.6994588744588744,0.6185466423450559,0.18846166200893,0.1979445933869526
0.2603373637856396,0.2038811498510347,0.3627870150435471,0.8064817965294319,0.3747070104410824,0.2415546265958648,0.800058131085598,0.7764086361242759,0.6989177489177488,0.6179103211301066,0.187465870033086,0.1979892761394102
0.2498134049858187,0.1931717529591754,0.3640538400633412,0.8180503572643757,0.366822927764756,0.2345497683877528,0.7957564307513443,0.7725645076355977,0.6929653679653679,0.6112501590803038,0.1817802190742347,0.1912868632707774
0.2444394685773996,0.1902729688380706,0.3697545526524149,0.822643756379721,0.3610696782441934,0.2345497683877528,0.7931986629850313,0.7691153238546604,0.688059163059163,0.6053535824884403,0.1782788859978799,0.1867292225201072
0.2578743095984475,0.2033174973830421,0.3670625494853523,0.8081830554610412,0.3715107607074365,0.242684442435883,0.7956692341229472,0.7737230121116376,0.6933621933621934,0.612013744538243,0.1831293565898943,0.1924039320822162
0.2701149425287356,0.2146710685240357,0.3632620744259699,0.7951684246342294,0.3815256765395269,0.2493503558919896,0.7990699026304316,0.7769352290679304,0.6981601731601731,0.6179951639587664,0.1880440718255115,0.1977211796246648
0.2632482460068667,0.2131411546823416,0.3749802058590658,0.7999319496427356,0.3727892606008949,0.2524008586600383,0.8002615898851911,0.7773565034228541,0.6982323232323232,0.6191829635600051,0.18846166200893,0.1973637176050044
0.2517539931333035,0.2042032369756019,0.3816310372129849,0.8111602585913577,0.3622416364798636,0.248559484803977,0.7980526086324662,0.7740126382306477,0.6932178932178932,0.6129894370678319,0.1821014422922489,0.1898123324396783
0.2488431109120764,0.2091150656252516,0.3973079968329375,0.8102245661789725,0.3549968037502663,0.2574850299401198,0.7991570992588287,0.7732490784623486,0.6937590187590188,0.6133288083824715,0.1798850020879509,0.1877569258266309
0.2581728616211375,0.2255415089781785,0.4101346001583532,0.796189179993195,0.3573407202216067,0.2736413964523783,0.8047958145618369,0.7775144813059505,0.6984848484848485,0.6188011708310356,0.1846712280363624,0.1942359249329758
0.2658605762054038,0.23455994846606,0.4114014251781474,0.7870874447090849,0.3623481781376518,0.2804202914924866,0.8087196628397035,0.7814375987361769,0.7033549783549783,0.6246977474228992,0.1894253316629726,0.2003127792672028
0.2647410061203164,0.232949512843224,0.4106096595407759,0.7886185777475332,0.3618154698487108,0.279064512484465,0.8084290074117134,0.7812796208530806,0.7040764790764791,0.624825011665889,0.1890077414795541,0.1997319034852546
0.2632482460068667,0.2300507287221193,0.4080760095011877,0.7910003402517863,0.3616023865331344,0.276126991300418,0.8067432059293708,0.7793312269615588,0.7032106782106782,0.6227039409493913,0.1855064084031993,0.1950848972296693
0.2661591282280937,0.2339962959980674,0.4098178939034046,0.7871725076556653,0.3630939697421692,0.2795164388204723,0.8076151722133411,0.7788836229594523,0.7021645021645021,0.6221948839774318,0.1855064084031993,0.1932529043789097
0.2739214808180325,0.2472018681053225,0.4191607284243864,0.7758591357604628,0.3654378862135095,0.2920573946446729,0.8120040691759918,0.7821221695629278,0.7069624819624819,0.6273278751113562,0.1895859432719797,0.1989276139410187
0.2791461412151067,0.2558982204686368,0.4253365003958828,0.768288533514801,0.3671425527381206,0.3003050502768049,0.817206801337015,0.7868615060558188,0.7128787878787879,0.6333517159462096,0.1935369888535543,0.2039320822162645
0.2828780414987311,0.2585554392463162,0.4226444972288203,0.7647158897584213,0.3707649691029192,0.3012089029488193,0.8174974567650051,0.7872827804107425,0.7135642135642135,0.6333941373605397,0.194661270116604,0.2036639857015192
0.2731004627556351,0.252999436347532,0.4321456848772764,0.7732221844164683,0.3605369699552525,0.3007569766128121,0.8115099549484086,0.7825171142706687,0.709090909090909,0.6288974674415646,0.1918023834762776,0.1996425379803395
0.2728765487386177,0.2645140510508092,0.4554235946159937,0.7672677781558354,0.3525463456211378,0.3171393062930742,0.8064234849585816,0.7796735123749342,0.7071428571428572,0.6300428456284733,0.1913526709710578,0.1987935656836461
0.2843708016121809,0.2860133666156695,0.4734758511480603,0.7493194964273564,0.3546771787769017,0.3387187888374194,0.8014242115971515,0.7799631384939442,0.711038961038961,0.6379332286938447,0.197648646044136,0.207864164432529
0.2977310046275563,0.3075932039616716,0.4874109263657957,0.7303504593399116,0.3595780950351587,0.3587165292057394,0.7941287603545997,0.7787783043707215,0.7143939393939394,0.6439994909430281,0.20407311040442,0.2184986595174262
0.3007165248544559,0.3113777276753361,0.4885193982581156,0.7266927526369514,0.3612827615597698,0.3617670319737882,0.7860776049992734,0.7755134281200632,0.7120490620490619,0.6433631697280788,0.2055186148854839,0.2212689901697944
0.2949693984176743,0.2988163298172155,0.4760095011876485,0.7365600544402858,0.3613893032175581,0.3485481866455767,0.7761081238192122,0.767693522906793,0.7013347763347763,0.6335214016035295,0.2001541871446468,0.2147453083109919
0.2901179280489625,0.2870601497705129,0.4631828978622329,0.7454916638312352,0.3622416364798636,0.3356682860693707,0.7686964104054643,0.7609531332280147,0.6898989898989899,0.6199041276036144,0.1936333558189586,0.2072386058981233
0.2929541722645171,0.2898784121104759,0.46270783847981,0.7424293977543382,0.3643724696356275,0.3375889729974014,0.7673303298939108,0.7602422327540811,0.6871572871572871,0.6157892504136089,0.1924127075905046,0.2083556747095621
0.3014629049111808,0.3008293743457605,0.4663499604117183,0.7317965294317795,0.3692733858938845,0.3465145181335442,0.7641040546432205,0.7590047393364928,0.6862914862914862,0.6163831502142282,0.195046737978221,0.2146112600536193
0.3054933572174951,0.306224333682261,0.4680918448139352,0.726607689690371,0.3716173023652248,0.3509207999096147,0.7609649760209272,0.757056345444971,0.6849206349206348,0.6160862003139185,0.1977771353313417,0.2169794459338695
0.3066875653082549,0.305821724776552,0.4650831353919241,0.7261823749574685,0.3734285105476241,0.349565020901593,0.7585816015114082,0.7553975776724592,0.6822510822510822,0.6129894370678319,0.1979377469403488,0.2162198391420911
0.3136288998357964,0.3075126821805298,0.4535233570863025,0.7213337870023818,0.3822714681440443,0.346627499717546,0.7575643075134427,0.7531595576619273,0.6802669552669551,0.6115471089806135,0.1992868844560084,0.2181858802502234
0.3298999850723988,0.3039697238102907,0.4120348376880444,0.7139333106498811,0.4078414660132111,0.3293413173652694,0.7646562999564017,0.7601369141653502,0.6865800865800865,0.6177406354727867,0.2051652693456683,0.2268990169794459
0.3364681295715778,0.2988163298172155,0.3879651623119556,0.7129125552909154,0.4206264649477946,0.3171393062930742,0.7724167998837378,0.7667719852553976,0.694047619047619,0.6245280617655793,0.2093732935016543,0.233467381590706
0.3283325869532766,0.2864159755213785,0.3808392715756136,0.7241408642395373,0.4172171318985723,0.3058411478928934,0.7742479290800756,0.7661137440758293,0.6933982683982685,0.6227887837780512,0.2073817095499662,0.2303842716711349
0.3136288998357964,0.2712778806667203,0.3822644497228821,0.7404729499829875,0.4062433411463882,0.2957857869167326,0.7743351257084726,0.7647446024223274,0.6903318903318904,0.6194799134603148,0.2025312389579519,0.223100983020554
0.3077324973876698,0.2612931798051373,0.3751385589865399,0.7491493705341953,0.4044321329639889,0.2862953338605806,0.7766894346751926,0.7676145339652448,0.693037518037518,0.6213888771051628,0.2007323889370723,0.2187667560321715
0.3163905060456784,0.2541267412835172,0.3426761678543151,0.7479584892820687,0.4214787982101001,0.269687041012315,0.782618805406191,0.774170616113744,0.6995670995670995,0.6269460823823867,0.202081526452732,0.2192582663092046
0.3096730855351545,0.2377002979305902,0.3247822644497229,0.7604627424293978,0.4227572981035585,0.2517229691560275,0.7900595843627379,0.7799368088467614,0.7039321789321789,0.6299155813854834,0.2016960585911149,0.2162645218945487
0.2895208240035826,0.2178114179885659,0.3284243863816311,0.7824940455937394,0.4070956744086937,0.239069031747825,0.7907862229327133,0.7769088994207477,0.6992063492063492,0.6221524625631019,0.1950788603000225,0.2063002680965147
0.2610837438423645,0.1982446251711087,0.3501187648456058,0.8090336849268459,0.3796079266993394,0.2330810077957293,0.7893038802499637,0.7728804634017904,0.6917027417027417,0.6130742798964918,0.185249429828788,0.1928507596067918
0.2476489028213166,0.1894677510266527,0.3615201900237531,0.8212827492344336,0.3660771361602386,0.2309343576996949,0.7906118296759193,0.7710637177461822,0.6872294372294372,0.6071777033046283,0.1797243904789438,0.1853440571939231
0.2527242872070458,0.1933327965214591,0.3581947743467934,0.8163490983327663,0.3708715107607074,0.2325160998757202,0.7937799738410114,0.7733280674038967,0.6908008658008657,0.6102320451363848,0.1824547878320645,0.1882484361036639
0.2652634721600239,0.2014654964167807,0.3475851148060174,0.8048656005444029,0.3834434263797144,0.234436786803751,0.7974131666908879,0.7775144813059505,0.6954184704184704,0.6148135578840199,0.1863094664482348,0.1936997319034852
0.2612330198537095,0.1984056687333923,0.3502771179730799,0.808863559033685,0.3796079266993394,0.2333069709637328,0.7970643801772999,0.777751448130595,0.6950216450216451,0.6143469223263904,0.1861488548392277,0.1928507596067918
0.2560829974623078,0.1888235767775183,0.3422011084718923,0.8168594760122492,0.3786490517792457,0.2235905547395774,0.7927336143002471,0.7733280674038967,0.6898629148629148,0.6078564459339075,0.181426873534419,0.1855674709562109
0.2503358710255262,0.1844754005958611,0.3456848772763262,0.8223885675399796,0.3734285105476241,0.2218958309795503,0.7917163203022817,0.7722222222222223,0.6873737373737374,0.6056081109744199,0.179435289582731,0.1831099195710455
0.2585460516494999,0.1918028826797649,0.3428345209817894,0.8137972099353521,0.3802471766460686,0.2259631680036153,0.794913530010173,0.774670879410216,0.692027417027417,0.610189623722055,0.1825832771192702,0.1870420017873101
0.2625018659501418,0.1974394073596908,0.3456848772763262,0.8086083701939436,0.3820583848284679,0.2309343576996949,0.7990989681732306,0.7793312269615588,0.6977994227994228,0.6163407287998982,0.1865664450226462,0.1930294906166219
0.2603373637856396,0.1881794025283839,0.3319081551860649,0.8147329023477373,0.3851480929043256,0.2195232177155123,0.7972387734340939,0.7781727224855186,0.6968253968253968,0.6148984007126798,0.1856991423340079,0.1909740840035746
0.2499626809971637,0.1775505274176665,0.3330166270783848,0.8263014630826813,0.3773705518857873,0.2124053779233985,0.7945938090393838,0.7749868351764087,0.6922438672438672,0.6108683663513342,0.1820050753268446,0.1848078641644325
0.2482460068666965,0.1777920927610918,0.3371338083927158,0.827152092548486,0.3747070104410824,0.2141001016834255,0.7938090393838105,0.7735650342285413,0.6905844155844155,0.6085351885631868,0.1793389226173267,0.1810098302055406
0.2525750111957008,0.1877767936226749,0.3477434679334917,0.8194113644096631,0.3742808438099296,0.2248333521635973,0.7961052172649324,0.7762769878883623,0.6948773448773449,0.6135409154541214,0.1834184574861071,0.1857015192135835
0.25794894760412,0.1942185361140188,0.3486935866983373,0.8128615175229671,0.3777967185169401,0.2298045418596768,0.7982851329748584,0.7789362822538178,0.7005772005772005,0.6213040342765028,0.1890719861231569,0.1929401251117068
0.2589192416778623,0.1931717529591754,0.3448931116389549,0.8129465804695475,0.3798210100149158,0.2276578917636425,0.7941287603545997,0.7785676671932595,0.7062049062049062,0.6292368387562042,0.1921557290160932,0.1934763181411975
0.2590685176892073,0.1814155729124728,0.3211401425178148,0.8189860496767608,0.3879181760068186,0.210936617331375,0.7866298503124546,0.7791732490784624,0.7168470418470418,0.6424723200271497,0.1915132825800649,0.1896782841823056
0.2719062546648753,0.1792414848216442,0.2897862232779097,0.8128615175229671,0.4075218410398465,0.1982826799231725,0.7796250544978928,0.785492364402317,0.7382395382395381,0.6742035379459552,0.1996402299958241,0.1947274352100089
0.300119420809076,0.2035590627264675,0.2777513855898654,0.7839401156856074,0.4317067973577669,0.2110495989153767,0.7643365789856126,0.7788836229594523,0.7557720057720058,0.7319815042633522,0.2297709678455558,0.21952636282395
0.3298999850723988,0.2528383927852484,0.3114806017418844,0.7409833276624703,0.441615171532069,0.2575980115241215,0.7310855980235431,0.732780410742496,0.7363275613275613,0.7894625206804395,0.2765731907102245,0.2591152815013405
0.3519181967457829,0.3195909493517997,0.3961995249406176,0.6931779516842463,0.4288301725974856,0.3346514518133544,0.6662985031245459,0.6394154818325435,0.6693362193362193,0.8379077758452468,0.3376056021329222,0.3095174262734584
0.3930437378713241,0.4167002174088091,0.4996041171813143,0.6184076216400136,0.4233965480502876,0.4397243249350356,0.5717773579421596,0.5314375987361769,0.5928932178932179,0.9051032961438936,0.4279978156821175,0.3848972296693476
0.4611135990446335,0.53402045253241,0.5859065716547902,0.5176930928887378,0.4430002130833156,0.5527059089368432,0.4747275105362593,0.4348341232227489,0.5104617604617604,0.9529970729224112,0.5319135267097106,0.4807417336907953
0.5499328257948947,0.6720347854094533,0.6690419635787808,0.3940966315073154,0.4784785851267846,0.6792452830188679,0.3698299665746257,0.3321221695629278,0.3992784992784992,0.968056675009545,0.650091548617134,0.5972743521000894
0.6668905806836841,0.8160077300909897,0.704038004750594,0.251446070091868,0.5500745791604518,0.7927917749406845,0.2503124545850893,0.2317008952080042,0.2976190476190476,1.0,0.799299733384729,0.7410634495084897
0.7657113001940589,0.9077220388114984,0.6747426761678543,0.1466485199047295,0.6305135307905391,0.846571008925545,0.153146345007993,0.1577672459189047,0.2063492063492063,0.987315997115344,0.9171565320741384,0.8618856121537086
0.8364681295715778,0.9126338674611484,0.5342834520981791,0.1037767948281729,0.7283187726401023,0.7999096147327985,0.1188490045051591,0.1552659294365455,0.1738095238095238,0.9176600347855598,0.945906010086409,0.9137176050044684
0.8393790117928049,0.8481359207665674,0.4012668250197941,0.1361857774753317,0.7750905604091199,0.7072647158513162,0.153204476093591,0.187809373354397,0.136976911976912,0.7254486064565393,0.8643474350326041,0.8882931188561216
0.7913867741453949,0.7765520573315082,0.3623119556611243,0.2013439945559713,0.7539953121670573,0.6430911761382894,0.2139805260863246,0.2236703528172722,0.077056277056277,0.4547999830314343,0.7202788217532363,0.8229669347631814
0.7404836542767578,0.7008615830582172,0.3214568487727632,0.2703300442327322,0.7314084807159599,0.5754152073212065,0.2907426246185147,0.275618746708794,0.0616883116883116,0.2471047384719806,0.593235039028621,0.7562109025915997
0.6936856247201075,0.6248490216603592,0.2711005542359461,0.3371895202449813,0.7148945237587897,0.5042368094000678,0.3624182531608777,0.3407582938388625,0.0965007215007215,0.1305306918932677,0.4884841476341909,0.6857015192135835
0.6239737274220032,0.5863596102745793,0.3433095803642121,0.3972439605307928,0.640848071595994,0.502881030392046,0.4299665746257811,0.4050026329647183,0.1658369408369408,0.1285793068340898,0.4048376216632938,0.6130026809651473
0.535453052694432,0.5593848135920766,0.4782264449722883,0.4618917999319497,0.5322821223098231,0.5321432606485142,0.5041418398488592,0.4708267509215376,0.2569264069264069,0.198998854621813,0.3437088432751919,0.5383824843610366
0.4351395730706076,0.5081729607858926,0.5904988123515441,0.5461041170466145,0.4229703814191348,0.5362105976725793,0.5879377997384101,0.5500263296471827,0.368975468975469,0.3011920417426717,0.290996113199062,0.4533065236818588
0.3375130616509926,0.4314357033577584,0.6463974663499605,0.6422252466825451,0.3344342637971446,0.5024291040560388,0.6714721697427699,0.6351764086361242,0.4912337662337662,0.4177660883213847,0.250746843981883,0.3665773011617515
0.2708613225854605,0.337869393670988,0.6039588281868569,0.7296699557672678,0.3010867249094395,0.4216472714947463,0.7326842028774887,0.7020010531858872,0.5845598845598845,0.5043906163831503,0.213870418553853,0.2871760500446828
0.2333930437378713,0.2503422175698526,0.5113222486144102,0.7972099353521607,0.3055614745365437,0.3271946672692351,0.7720680133701497,0.7453396524486572,0.6441919191919192,0.5536842998345566,0.1764157913333976,0.2157730116175156
0.2123451261382295,0.1968757548916982,0.45083135391924,0.8374447090847227,0.3108885574259535,0.2679923172522878,0.7981979363464612,0.7729594523433386,0.6822871572871573,0.5848216179527426,0.1606758536507018,0.1799374441465594
0.212718316166592,0.1794025283839278,0.4155186064924783,0.8464613814222525,0.3230343064138078,0.243249350355892,0.8159569829966574,0.792259083728278,0.7091630591630592,0.610104780893395,0.161221933121326,0.1714477211796246
0.2154799223764741,0.1719945245188823,0.395249406175772,0.8488431439265057,0.3318772640102279,0.2308213761156931,0.8289783461706147,0.8075302790942601,0.7293650793650793,0.6274975607686761,0.1629244161768012,0.1692582663092046
0.2101059859680549,0.1573395603510749,0.3778305621536025,0.8596461381422253,0.3339015555082036,0.2142130832674273,0.8345007993024269,0.8145866245392311,0.7393217893217894,0.6342849870614687,0.1599049179274678,0.1620196604110813
0.1929392446633826,0.1389805942507448,0.3779889152810768,0.8791255529091528,0.321542723204773,0.2014461642752231,0.8341229472460397,0.8140337019483939,0.7397546897546897,0.6318245450303314,0.1516816035463043,0.150893655049151
0.1880131362889983,0.134471374506804,0.3797307996832937,0.8843143926505614,0.3173875985510334,0.1989605694271833,0.8367097805551519,0.8170352817272248,0.7441197691197691,0.6356424723200272,0.1496900195946163,0.1466041108132261
0.2002537692192864,0.1456639020855141,0.3757719714964371,0.8714698877169106,0.3275090560409119,0.2052875381312845,0.8428426100857433,0.8240389678778304,0.7542568542568542,0.6456539261018963,0.1536089428543895,0.1505361930294906
0.2036124794745484,0.1479990337386263,0.3732383214568487,0.8683225586934332,0.3307053057745578,0.2060784092192972,0.8483941287603546,0.8297525013164824,0.7635281385281385,0.6546048445255165,0.1571745205743471,0.1533512064343163
0.1980146290491118,0.1371285932844834,0.3637371338083927,0.8772541680843825,0.3299595141700405,0.1951191955711219,0.8489754396163348,0.8303054239073197,0.7649350649350649,0.654180630382217,0.1554720375188719,0.1500893655049151
0.193013882669055,0.1275465013286094,0.3555027711797308,0.8850799591697858,0.3291071809077349,0.1854027793469664,0.8472024415055951,0.8283307003686151,0.7622294372294373,0.6507444958214907,0.1509106678230702,0.1436550491510277
0.1909986565158979,0.1262581528303406,0.3574030087094221,0.8869513439945561,0.3270828894097592,0.1851768161789627,0.8468245894492079,0.8289626119010005,0.7653679653679653,0.6537564162389174,0.1505573222832546,0.1424932975871313
0.1978653530377668,0.1400273774055882,0.3697545526524149,0.8758080979925145,0.3278286810142765,0.1991865325951869,0.851794797267839,0.8344918378093733,0.771969696969697,0.6609680566750096,0.1542513892904179,0.1482126899016979
0.1999552171965965,0.1467106852403575,0.3784639746634996,0.8710445729840082,0.32644363946303,0.2070952434753135,0.8547304170905392,0.8377303844128489,0.7783549783549784,0.6673312688245027,0.1568211750345315,0.1515192135835567
0.1923421406180026,0.1405910298735808,0.3825811559778305,0.87861517522967,0.3196249733645855,0.2042707038752683,0.8542072373201569,0.8373354397051078,0.7777777777777777,0.6669494760955331,0.1540265330378079,0.1468275245755138
0.1897298104194656,0.1335856349142443,0.3743467933491686,0.8838040149710786,0.3204773066268911,0.1963619929951417,0.8505159133846825,0.8342022116903632,0.7735569985569986,0.6616892207186188,0.1486942276187722,0.1407059874888293
0.1917450365726228,0.1358402447862146,0.3743467933491686,0.8815073154134061,0.3219688898359258,0.1979437351711671,0.8505159133846825,0.834228541337546,0.7747113997113997,0.661519535061299,0.1474093347467154,0.1405719392314566
0.1946559187938498,0.1446171189306707,0.3855898653998417,0.8752126573664512,0.3202642233113147,0.2081120777313297,0.8551373346897253,0.8396261190100053,0.783044733044733,0.6697492894413101,0.1512640133628858,0.1461572832886505
0.1974921630094044,0.1479990337386263,0.3862232779097387,0.871725076556652,0.322075431493714,0.2107106541633713,0.8581310855980235,0.842259083728278,0.7892135642135641,0.676154923005133,0.1540586553596094,0.1493744414655942
0.1894312583967756,0.1403494645301554,0.3884402216943785,0.8804014971078599,0.3155763903686341,0.206191390803299,0.8586251998256067,0.8427856766719327,0.7894300144300144,0.675348916132864,0.1507179338922617,0.1438337801608579
0.180176145693387,0.1313310250422739,0.3901821060965954,0.8904389248043553,0.3083315576390368,0.2004293300192068,0.8563290219444848,0.8406003159557661,0.7852813852813852,0.6699613965129597,0.1446146927499919,0.136148346738159
0.1810718017614569,0.1347129398502295,0.3947743467933493,0.8881422252466826,0.3074792243767312,0.2043836854592701,0.8581601511408226,0.8415745129015271,0.7884920634920635,0.6720400458151276,0.1429764543381195,0.1352993744414656
0.189953724436483,0.1435703357758273,0.3935075217735551,0.8783599863899286,0.3141913488173876,0.2101457462433623,0.8635372765586397,0.8474986835176409,0.7967893217893217,0.6801425359521487,0.1468311329542899,0.1417783735478105
0.1912972085385878,0.1460665109912231,0.3955661124307206,0.8763184756719974,0.3144044321329639,0.212631341091402,0.8674901903793053,0.8529489204844655,0.8045093795093795,0.6877359691172105,0.1504609553178503,0.1483914209115281
0.180773249738767,0.1350350269747966,0.3960411718131433,0.8881422252466826,0.3067334327722139,0.2051745565472827,0.8677808458072954,0.853949447077409,0.8052669552669552,0.6867602765876215,0.1479232918955382,0.1449061662198391
0.1758471413643827,0.1280296320154602,0.392874109263658,0.8946920721333788,0.3042829746430854,0.1990735510111852,0.8659206510681587,0.8520537124802527,0.8036435786435786,0.6837059347558648,0.1418842953968712,0.136148346738159
0.1786087475742648,0.1321362428536919,0.3950910530482977,0.8909493024838382,0.3055614745365437,0.2028019432832448,0.866705420723732,0.8531332280147446,0.8063131313131312,0.6841725703134943,0.1387363078603321,0.1306076854334227
0.1882370503060158,0.1446171189306707,0.3992082343626286,0.8788703640694115,0.3109950990837417,0.2129702858434075,0.8729254468827206,0.8602422327540811,0.8161616161616162,0.6927416960081451,0.1419806623622755,0.1346738159070598
0.1936856247201074,0.1509783396408728,0.4001583531274743,0.8723205171827153,0.3146175154485404,0.2178284939554852,0.8780119168725476,0.8663243812532913,0.8255050505050505,0.700886607559496,0.1448074266808005,0.1386058981233244
0.1843558740110464,0.1457444238666559,0.409501187648456,0.8804865600544403,0.3048156829320264,0.217376567619478,0.879087341956111,0.8671669299631385,0.8269841269841269,0.7018623000890851,0.1411454819954386,0.1340035746201966
0.1760710553814002,0.137289636846767,0.4106096595407759,0.889673358285131,0.2985297251225229,0.2118404700033894,0.876529574189798,0.8666666666666667,0.826010101010101,0.6992321724006278,0.1344640390607433,0.1246201966041108
0.1802507836990595,0.1453418149609469,0.4175771971496438,0.8830384484518544,0.299168975069252,0.2199751440515195,0.8785060311001308,0.8708530805687204,0.831998556998557,0.703686420905273,0.1336288586939064,0.1222966934763181
0.1918196745782953,0.1610435622835977,0.4239113222486145,0.8681524328002722,0.3052418495631792,0.2333069709637328,0.8862665310274669,0.8788572933122696,0.8432900432900433,0.7133585033725024,0.1363913783688285,0.1264968722073279
0.1923421406180026,0.1639423464047024,0.4285035629453682,0.866281047975502,0.304069891327509,0.2370353632357925,0.8921959017584653,0.8860716166403371,0.8539682539682538,0.7221821575531329,0.1387363078603321,0.1297140303842716
0.183236303925959,0.153313471293985,0.4269200316706256,0.8770840421912216,0.2981035584913701,0.2289006891876623,0.8944630140967883,0.8891258557135334,0.8577561327561327,0.7235820642260213,0.1351064854967717,0.1260053619302949
0.1750261233019853,0.1420404219341332,0.4221694378463975,0.8877169105137803,0.2938418921798423,0.2194102361315105,0.8941723586687982,0.8899947340705634,0.8590548340548341,0.7221821575531329,0.128392920240275,0.1182305630026809
0.1724137931034482,0.1428456397455512,0.4292953285827395,0.8888227288193263,0.2896867675261027,0.2224607388995593,0.8975730271762825,0.8939441811479725,0.8639610389610389,0.7243032282696306,0.1245061193023031,0.1131814119749776
0.1734587251828631,0.1514614703277236,0.4440221694378464,0.8836338890779177,0.2854251012145749,0.2337588972997401,0.9066996076151722,0.90376513954713,0.8788239538239538,0.7361388028676877,0.1268831711156082,0.1176943699731903
0.1704732049559635,0.1541992108865448,0.4557403008709423,0.8838890779176592,0.2793522267206478,0.2398599028358377,0.9144310419997091,0.9127172195892576,0.890981240981241,0.7444958214906886,0.1274292505862324,0.1188114387846291
0.1630840423943872,0.1471132941460665,0.4574821852731592,0.8917999319496428,0.273492435542297,0.2354536210597672,0.91588431913966,0.916350710900474,0.8962842712842712,0.7458108853349171,0.1219363335581895,0.111751563896336
0.1506941334527541,0.1371285932844834,0.4641330166270785,0.9042191221503914,0.2624121031323247,0.2309343576996949,0.916204040110449,0.9182464454976302,0.8991341991341991,0.7450897212913079,0.1136808968552247,0.1010723860589812
0.1473354231974921,0.1398663338433046,0.4766429136975456,0.9046444368832938,0.2558065203494566,0.2372613264037961,0.9198953640459236,0.9231964191679832,0.9071428571428573,0.748780384338014,0.1095371173428415,0.0963806970509383
0.1519629795491864,0.1527498188259924,0.4921615201900239,0.8952024498128616,0.2538887705092691,0.2518359507400293,0.9296613864263916,0.935018430753028,0.9217893217893216,0.7605735375217411,0.1096013619864443,0.0985701519213583
0.1509926854754441,0.1590305177550527,0.5067300079176565,0.8923953725757061,0.2483486043042829,0.261439385380183,0.938264787094899,0.944681411269089,0.9343073593073592,0.7701183557459806,0.1084128360797918,0.098704200178731
0.1362889983579638,0.1521861663579998,0.5243072050673002,0.9043892480435524,0.2318346473471127,0.2629081459722065,0.9416654556023832,0.948446550816219,0.9403318903318902,0.7700335129173207,0.1010889467090681,0.0906166219839142
0.1215106732348111,0.1430872050889765,0.537767220902613,0.9176590677101054,0.2168122735989771,0.2613264037961811,0.9422177009155648,0.95,0.9417027417027416,0.7654520001696856,0.0904243358709967,0.0779714030384271
0.1219585012688461,0.1495289475803204,0.5494853523357087,0.9140013610071454,0.2131898572341785,0.2700259857643204,0.9458218282226422,0.9549499736703528,0.947943722943723,0.7677851779578332,0.0839677491889113,0.0717158176943699
0.122107777280191,0.1622513890007247,0.5741884402216945,0.9071963252807078,0.2049861495844875,0.2877640944526041,0.953407934893184,0.9627435492364402,0.9585137085137084,0.7753786111228949,0.0828434679258616,0.0712243074173369
0.1169577548887893,0.1678073918995088,0.5960411718131433,0.9071963252807078,0.1939058171745152,0.2995141791887922,0.9595407644237756,0.969246972090574,0.9663780663780664,0.7795359097272304,0.0793100125277055,0.0689008042895442
0.1088968502761606,0.1636202592801352,0.6049089469517024,0.9140013610071454,0.1852759428936714,0.2997401423567958,0.9613428280773144,0.969747235387046,0.9684704184704184,0.7775845246680525,0.0715364106517619,0.0608132260947274
0.0969547693685624,0.156534342539657,0.6164687252573239,0.9245491663831236,0.1728105689324525,0.2988362896847813,0.9590466501961924,0.9687203791469194,0.9663419913419912,0.7710516268612395,0.0618354694677331,0.050491510277033
0.0956112852664576,0.1630566068121426,0.631987331749802,0.9218271520925484,0.1666311527807372,0.309004632244944,0.9608777793925302,0.970695102685624,0.968109668109668,0.7699486700886609,0.0573383444155343,0.0467828418230563
0.1027765338110165,0.1794025283839278,0.6487727632620744,0.9091527730520584,0.1660984444917962,0.3264037961812224,0.9665164946955384,0.975329120589784,0.974170274170274,0.7749968183939254,0.0582377694259741,0.0503127792672028
0.1008359456635318,0.1857637490941299,0.6655581947743469,0.9069411364409664,0.1590666950777754,0.3367981019093887,0.9696265077750328,0.9780410742496052,0.9788600288600288,0.7781360030543418,0.0589123381838039,0.0519213583556747
0.093372145096283,0.1826233996295998,0.6752177355502772,0.9128104797550188,0.1504368207969316,0.3380408993334086,0.9677081819502978,0.975144813059505,0.9757215007215008,0.7733848046493872,0.0539976229481867,0.047408400357462
0.0836692043588595,0.1747322650777035,0.6802850356294537,0.9225076556651924,0.1418069465160878,0.3344254886453507,0.9618369423048976,0.9680621379673512,0.9667748917748916,0.7629915581385484,0.0462561433940445,0.0394995531724754
0.0881474846992088,0.1810129640067638,0.6831353919239905,0.91663831235114,0.144150862987428,0.3397356230934357,0.9579130940270312,0.9645076355976828,0.9633838383838385,0.76159165146566,0.0456779416016189,0.040035746201966
0.0981489774593222,0.1971173202351235,0.693428345209818,0.9024328002722016,0.1477732793522267,0.3547621737656762,0.9600930097369568,0.9653501843075304,0.9667027417027416,0.7668094854282442,0.051042369342456,0.0483914209115281
0.1034482758620689,0.2039616716321765,0.695803642121932,0.8957978904389249,0.1507564457702961,0.3604112529657665,0.9585525359686092,0.9636650868878356,0.9666305916305916,0.7699910915029908,0.0564067970832931,0.0566577301161751
0.1011344976862218,0.1997745390128029,0.6924782264449724,0.8993705341953045,0.1502237374813551,0.3562309343576997,0.950239790728092,0.9531595576619272,0.9554112554112554,0.7621431298519493,0.0565352863704988,0.0574173369079535
0.1003134796238244,0.1948627103631532,0.684560570071259,0.9024328002722016,0.1522480289793309,0.3500169472376002,0.9376544106961198,0.939257503949447,0.9379148629148628,0.7511559835404914,0.0564389194050946,0.056970509383378
0.1084490222421256,0.2029148884773331,0.6831353919239905,0.8935011908812521,0.1585339867888344,0.3551011185176815,0.9291382066560092,0.9300421274354924,0.9265873015873016,0.7472107920078056,0.0634094632360027,0.063941018766756
0.125615763546798,0.222964811981641,0.6861441013460017,0.8731711466485199,0.1698274025143831,0.3702406507739238,0.9248946374073536,0.9242496050552924,0.9211760461760462,0.7509014550545116,0.0761299026693649,0.0781948168007149
0.1367368263919988,0.2305338594089701,0.677434679334917,0.8627934671657026,0.180694651608779,0.37250028245396,0.9168725475948264,0.9137967351237494,0.9083333333333332,0.748653120095024,0.0875012045870675,0.0906613047363717
0.1394237945962083,0.2280376841935744,0.666825019794141,0.8626233412725418,0.1861282761559769,0.3669641848378713,0.9026594971661096,0.8978409689310163,0.8882756132756132,0.7384295592415052,0.0946002377051813,0.0962913315460232
0.1472607851918196,0.2265077703518802,0.6471892319873319,0.8588805716230011,0.1983805668016194,0.358942492373743,0.8880395291382066,0.8817008952080043,0.8663059163059162,0.7255758706995292,0.1005749895602454,0.1010723860589812
0.1621883863263173,0.2372976890248812,0.6367379255740302,0.8446750595440626,0.2125506072874493,0.3627838662298045,0.8769074262461851,0.8693522906793049,0.850036075036075,0.718491494506427,0.1115608236163309,0.1118409294012511
0.1780862815345574,0.2468797809807553,0.6218527315914489,0.8306396733582851,0.2288514809290432,0.3641396452378262,0.8703386135736085,0.8601632438125328,0.837193362193362,0.7155644169176602,0.12556615592175,0.1273458445040214
0.1909986565158979,0.252194218536114,0.6049089469517024,0.820432119768629,0.2437673130193905,0.36188001355779,0.8625199825606744,0.8512111637704054,0.8246753246753246,0.7115768039706445,0.1390575310783463,0.1430741733690795
0.1909986565158979,0.2410822127385458,0.5830562153602534,0.8263014630826813,0.251118687406776,0.3462885549655405,0.8513006830402557,0.8368351764086361,0.8037157287157287,0.6966868875408307,0.1438116347049564,0.1481680071492404
0.1890580683684132,0.2289234237861341,0.56326207442597,0.833872065328343,0.2564457702961857,0.3305841147892893,0.8388606307222787,0.8218799368088467,0.7817099567099567,0.6808636999957579,0.1464456650926729,0.1497319034852547
0.2019704433497537,0.2339962959980674,0.5456848772763263,0.8238346376318476,0.2715746857021095,0.3279855383572477,0.8314779828513297,0.8132701421800947,0.7694083694083693,0.6730157383447165,0.1541550223250136,0.1576407506702412
0.2186147186147186,0.2436589097350833,0.5295328582739509,0.8092038108200069,0.2888344342637971,0.329002372613264,0.8286876907426246,0.8095050026329647,0.7643939393939393,0.6736520595596658,0.1646911438758793,0.170420017873101
0.2244364830571727,0.2436589097350833,0.517181314330958,0.8058863559033685,0.2972512252290645,0.3244831092531917,0.8260717918907136,0.8056608741442864,0.7562409812409812,0.6686039112544013,0.1724326234300215,0.1800268096514745
0.2172712345126138,0.2325469039375151,0.5105304829770388,0.8158387206532836,0.2943746004687833,0.3144277482770308,0.8180497020781864,0.7972353870458136,0.7427489177489177,0.6565562295846944,0.1745205743471138,0.18047363717605
0.2152560083594566,0.222562203075932,0.4951702296120349,0.8222184416468188,0.2981035584913701,0.3018867924528301,0.809766022380468,0.7873354397051079,0.7286796536796537,0.6444661265006576,0.1737175163020783,0.1773011617515639
0.2246603970741901,0.2304533376278283,0.4907363420427554,0.8126913916298061,0.3063072661410611,0.3058411478928934,0.8090975148960906,0.7848867825171143,0.7252525252525253,0.6427268485131294,0.1781182743888728,0.1815013404825737
0.238393790117928,0.2401159513648442,0.4807600950118766,0.7998468866961552,0.3194118900490091,0.309004632244944,0.8106670542072374,0.7857293312269615,0.7243506493506493,0.6461205616595258,0.1855064084031993,0.1902591599642537
0.2457829526795044,0.2415653434253966,0.4677751385589866,0.7948281728479075,0.3291071809077349,0.305502203140888,0.8110449062636245,0.7865455502896261,0.7243145743145742,0.646926568531795,0.1902283897080081,0.1955764075067024
0.2371249440214957,0.2293260326918431,0.4619160728424387,0.8062266076896905,0.3248455145962071,0.2947689526607163,0.80735358232815,0.782596103212217,0.7183621933621933,0.6391634497094133,0.1890719861231569,0.1932082216264521
0.2316763696074041,0.2211933327965214,0.4574821852731592,0.8136270840421913,0.3223950564670786,0.2875381312846006,0.8030809475366952,0.7779357556608741,0.7112914862914863,0.6314427523013618,0.1867591789534547,0.1902591599642537
0.2386177041349455,0.2234479426684918,0.4475059382422804,0.8085233072473631,0.3307053057745578,0.2855044627725681,0.8023543089667199,0.777461822011585,0.7102453102453102,0.6305943240147627,0.1890719861231569,0.1928954423592493
0.2483952828780415,0.2318222079072389,0.4432304038004751,0.7984858795508677,0.3391220967398253,0.2899107445486386,0.8061328295305915,0.7819641916798314,0.7167748917748917,0.6381877571798245,0.1956891844142494,0.2013404825737265
0.2529482012240632,0.2339962959980674,0.4376880443388757,0.7947431099013271,0.3443426379714467,0.2893458366286295,0.8091847115244877,0.7845708267509215,0.7208874458874459,0.6427692699274594,0.1986444380199801,0.2058087578194816
0.2482460068666965,0.2222401159513648,0.4245447347585115,0.8035896563456959,0.3454080545493287,0.2764659360524235,0.8065688126725766,0.7809899947340706,0.7165223665223666,0.638527128494464,0.1950788603000225,0.2009383378016085
0.2408568443051201,0.211772284402931,0.4197941409342836,0.81337189520245,0.3416790965267419,0.2674274093322788,0.8028484231943032,0.7771985255397578,0.7104978354978355,0.6325032876596106,0.1899071664899939,0.1934316353887399
0.248022092849679,0.2185361140188421,0.4177355502771181,0.8057162300102075,0.3474323460473045,0.2714947463563439,0.8038947827350675,0.7786466561348078,0.7123015873015872,0.6339031943324991,0.1898107995245896,0.1936103663985701
0.2585460516494999,0.2309364683146791,0.4197941409342836,0.7931269139162981,0.3542510121457489,0.280872217828494,0.8079639587269293,0.7843865192206424,0.7198051948051948,0.6410724133542612,0.194050946002377,0.1991063449508489
0.2604120017913121,0.2356872534020452,0.4251781472684086,0.7895542701599184,0.3538248455145962,0.2861823522765789,0.8102310710652522,0.7862559241706161,0.7233766233766233,0.6451872905442668,0.1957534290578523,0.2016979445933869
0.2513061650992685,0.2252194218536114,0.4239113222486145,0.8002722014290575,0.347751971020669,0.2783866229804541,0.8075570411277431,0.7832543443917852,0.7189754689754689,0.641369363254571,0.1913847932928592,0.1958445040214477
0.2457829526795044,0.2171672437394315,0.4197941409342836,0.807757740728139,0.3451949712337523,0.2712687831883403,0.8045923557622439,0.7806213796735124,0.7153318903318903,0.6370423789929157,0.1871767691368732,0.1895889186773905
0.2502612330198537,0.2215154199210886,0.4190023752969121,0.8028240898264717,0.3487108459407628,0.2739803412043836,0.804912076733033,0.7813586097946288,0.716919191919192,0.6397573495100327,0.1876586039638945,0.1912421805183199
0.2563815494849977,0.2298896851598357,0.4223277909738718,0.7949132357944879,0.3519070956744087,0.2809851994124958,0.8097950879232669,0.7862822538177988,0.7232683982683983,0.646799304288805,0.1918666281198805,0.1976318141197497
0.2584714136438274,0.2328689910620822,0.4235946159936659,0.792191221503913,0.3529725122522906,0.2835837758445373,0.8112774306060166,0.7885992627698788,0.7265873015873016,0.6514656598651,0.1946291477948026,0.2001340482573726
0.2527242872070458,0.2232868991062082,0.4171021377672209,0.8005273902687989,0.3510547624121031,0.2745452491243926,0.8079930242697282,0.784623486045287,0.7215007215007214,0.6459932974165359,0.1905174906042208,0.1950402144772118
0.2461561427078668,0.2138658507126178,0.4126682501979414,0.8092888737665873,0.3478585126784572,0.2664105750762625,0.8039238482778667,0.7803317535545023,0.7165945165945166,0.6402664064819922,0.1853136744723908,0.1874888293118856
0.247723540826989,0.2188582011434093,0.4191607284243864,0.8057162300102075,0.3467930961005753,0.2721726358603548,0.8039819793634646,0.7805950500263297,0.716919191919192,0.6408178848682816,0.1850888182197809,0.1872654155495978
0.2563815494849977,0.2286013366615669,0.4197941409342836,0.7956788023137121,0.3527594289367142,0.2791774940684668,0.8083708763261155,0.784913112164297,0.722077922077922,0.6458236117592161,0.1891683530885612,0.1933422698838248
0.2594417077175698,0.2302117722844029,0.4164687252573239,0.7930418509697176,0.3560622203281482,0.2791774940684668,0.8093300392384828,0.787625065824118,0.7247113997113996,0.6480719467187036,0.1906138575696251,0.1958445040214477
0.2475742648156441,0.2172477655205733,0.4161520190023753,0.8066519224225928,0.3476454293628809,0.2700259857643204,0.8057840430170033,0.783175355450237,0.719083694083694,0.641326941840241,0.1856027753686036,0.1906166219839142
0.2391401701746529,0.2071825428778484,0.4142517814726841,0.8167744130656686,0.3423183464734711,0.2622302564681956,0.8019764569103328,0.7784623486045287,0.7122655122655123,0.6333092945318798,0.1803668369149722,0.1839142091152815
0.2445887445887445,0.2114501972783637,0.4110847189231988,0.8114154474310992,0.3473258043895162,0.2640379618122246,0.8013951460543526,0.7784623486045287,0.7122294372294372,0.6332668731175498,0.181651729787029,0.1846291331546023
0.251679355127631,0.21934133183026,0.4114014251781474,0.803249404559374,0.3522267206477733,0.2698000225963168,0.8046795523906409,0.7819378620326487,0.716991341991342,0.6382726000084843,0.1856670200122065,0.1909740840035746
0.2517539931333035,0.2219180288267976,0.4163103721298496,0.8018033344675061,0.3506285957809503,0.2733024517003728,0.8060746984449935,0.7827540810953133,0.7175324675324676,0.6403088278963222,0.1876907262856959,0.1936103663985701
0.2456336766681593,0.2141074160560431,0.4140934283452099,0.8094589996597483,0.3470061794161517,0.2670884645802733,0.8034587995930824,0.7795681937862032,0.7122294372294372,0.635812157977347,0.1849282066107738,0.1888293118856121
0.2411553963278101,0.207746195345841,0.4110847189231988,0.8153283429738006,0.3447688046025996,0.261439385380183,0.7987501816596425,0.7755134281200632,0.7055916305916305,0.628430831883935,0.1798528797661495,0.1821268990169794
0.2466786087475742,0.2128995893389161,0.409501187648456,0.8094589996597483,0.349350095887492,0.2644898881482318,0.7988083127452404,0.7758030542390731,0.7061327561327562,0.6268612395537267,0.1803668369149722,0.1835120643431635
0.2551127033885654,0.2239310733553426,0.4133016627078386,0.7988261313371896,0.3540379288301726,0.2736413964523783,0.8022089812527249,0.779884149552396,0.7104617604617605,0.6306791668434226,0.1854742860813979,0.1903485254691689
0.2542916853261681,0.2244947258233351,0.4161520190023753,0.7989962572303505,0.3524398039633497,0.2749971754604,0.8021508501671268,0.7812532912058978,0.7116161616161616,0.6323336020022908,0.1871767691368732,0.1928507596067918
0.2454097626511419,0.213785328931476,0.4139350752177356,0.8097141884994896,0.3468996377583635,0.266749519828268,0.7987501816596425,0.778146392838336,0.7061688311688311,0.6265642896534172,0.1834827021297099,0.187444146559428
0.2392148081803254,0.2038006280698929,0.4074425969912906,0.8184756719972781,0.3446622629448114,0.2574850299401198,0.7955529719517512,0.7734597156398104,0.6988816738816739,0.6188860136596955,0.1787928431467026,0.1810098302055406
0.2415285863561725,0.204525324100169,0.4039588281868568,0.8168594760122492,0.3475388877050927,0.2566941588521071,0.7940124981834036,0.7724855186940495,0.6985209235209235,0.6185042209307259,0.1790819440429154,0.1810098302055406
0.2450365726227795,0.2158788952411627,0.4188440221694378,0.808863559033685,0.344981887918176,0.2700259857643204,0.7985757884028485,0.7771195365982095,0.7037157287157286,0.6258431256098078,0.1843821271401497,0.1880697050938337
0.2435438125093297,0.2142684596183267,0.4188440221694378,0.8104797550187139,0.343916471340294,0.2687831883403005,0.7994477546868187,0.7770932069510268,0.7042929292929292,0.6265642896534172,0.1859882432302206,0.1906613047363717
0.2358560979250634,0.2029954102584749,0.41298495645289,0.8208574345015313,0.3404005966332836,0.2588408089481415,0.7961342828077315,0.7740652975250131,0.7003607503607503,0.6213464556908328,0.1829045003372843,0.1860589812332439
0.2311539035676966,0.1944601014574442,0.4061757719714965,0.8280877849608712,0.3393351800554016,0.2504801717320076,0.7923848277866589,0.7704844655081622,0.6949855699855699,0.6145166079837102,0.1789534547557097,0.1818588025022341
0.2362292879534259,0.2002576696996537,0.4068091844813936,0.8221333787002383,0.3427445131046239,0.2546604903400745,0.7938671704694085,0.7720905739863085,0.6956709956709956,0.6145590293980402,0.1799813690533551,0.1835567470956211
0.2474996268099716,0.213785328931476,0.409501187648456,0.8085233072473631,0.3498828041764329,0.2651677776522426,0.7974422322336869,0.7751711427066877,0.7003607503607503,0.6198192847749544,0.184028781600334,0.1899016979445933
0.2497387669801463,0.2167646348337225,0.4106096595407759,0.8057162300102075,0.3511613040698913,0.2676533725002825,0.7986048539456474,0.7762506582411796,0.7021645021645021,0.6216858270054725,0.1858918762648164,0.1925379803395889
0.2424242424242424,0.2083098478138336,0.409501187648456,0.814307587614835,0.3462603878116343,0.2613264037961811,0.7959598895509374,0.7733807266982622,0.6984487734487734,0.6165952572858779,0.1827117664064758,0.1868185880250223
0.2375727720555306,0.2025122795716241,0.4083927157561363,0.8201769309288874,0.3431706797357767,0.2568071404361088,0.792675483214649,0.7696155871511321,0.6923160173160172,0.6096805667500955,0.1787607208249012,0.180875781948168
0.2414539483505,0.2071825428778484,0.4093428345209819,0.8154134059203813,0.3456211378649051,0.2605355327081685,0.7931695974422321,0.7702738283307003,0.6930014430014431,0.6106562592796845,0.1797886351225466,0.1825737265415549
0.2491416629347663,0.2160399388034463,0.4104513064133018,0.8063967335828515,0.3507351374387385,0.2670884645802733,0.7972969045196918,0.7745129015271195,0.6988095238095238,0.6170194714291775,0.1853136744723908,0.1894101876675603
0.2471264367816091,0.2127385457766326,0.408234362628662,0.8092888737665873,0.3500958874920093,0.2640379618122246,0.7982270018892602,0.7758293838862559,0.6990259740259741,0.6182496924447461,0.187241013780476,0.1924486148346738
0.2355575459023735,0.1993719301070939,0.4064924782264449,0.8228989452194625,0.3424248881312593,0.2539826008360636,0.7937799738410114,0.7711427066877303,0.6935786435786435,0.611038052008654,0.1828723780154829,0.1867739052725647
0.2288401253918495,0.1922054915854739,0.4066508313539193,0.8305546104117048,0.3375239718730023,0.2490114111399841,0.7911059439035024,0.7672459189046866,0.6883477633477634,0.6066686463326688,0.1789534547557097,0.1818588025022341
0.2414539483505,0.2041227151944601,0.4033254156769596,0.81702960190541,0.3476454293628809,0.256129250932098,0.7908734195611103,0.7690363349131121,0.6902236652236652,0.6084927671488568,0.180655937811185,0.1835120643431635
0.2472010747872816,0.2125775022143489,0.4076009501187648,0.8092888737665873,0.3503089708075858,0.2636990170602191,0.7947100712105799,0.7730647709320695,0.6957792207792207,0.6143045009120605,0.1851530628633837,0.1900804289544236
0.2435438125093297,0.2094371527498188,0.4093428345209819,0.813031643416128,0.3471127210739399,0.262004293300192,0.7965702659497167,0.7741969457609268,0.6969696969696969,0.6158316718279387,0.1855385307250008,0.1910634495084897
0.2362292879534259,0.2000966261373702,0.4064924782264449,0.8221333787002383,0.342851054762412,0.254434527172071,0.792617352129051,0.7709320695102686,0.6923881673881674,0.6113774233232937,0.1827760110500787,0.1863270777479893
0.2285415733691596,0.1909976648683469,0.4049089469517024,0.831320176930929,0.3379501385041551,0.2475426505479606,0.7901177154483361,0.766535018430753,0.6872294372294372,0.6050990540024604,0.1777970511708586,0.1800268096514745
0.2327959396924914,0.1967952331105564,0.4072842438638164,0.825876148349779,0.340080971659919,0.2524008586600383,0.7918907135590757,0.7674828857293312,0.6876623376623376,0.6066262249183388,0.1786322315376955,0.1815460232350312
0.2410061203164651,0.2056526290361542,0.4072842438638164,0.8165192242259273,0.346047304496058,0.2586148457801378,0.7947100712105799,0.7712216956292786,0.6917027417027417,0.6127349085818521,0.1831936012334971,0.187444146559428
0.2392894461859978,0.2054915854738707,0.4104513064133018,0.8176250425314733,0.3437033880247176,0.2597446616201558,0.797180642348496,0.7736703528172723,0.6949855699855699,0.6150680863699997,0.1851530628633837,0.1898123324396783
0.2307060755336617,0.1958289717368548,0.4098178939034046,0.8275774072813883,0.3378435968463669,0.252626821828042,0.7939543670978056,0.7700368615060559,0.6902597402597402,0.609171509778136,0.1808165494201921,0.1848078641644325
0.2263024331989849,0.1893872292455109,0.4066508313539193,0.8334467505954406,0.335712763690603,0.2469777426279516,0.7884609795087923,0.765560821484992,0.6844516594516594,0.602808297628643,0.1765764029424046,0.1797140303842717
0.2317510076130765,0.1962315806425638,0.4083927157561363,0.8268118407621641,0.339015555082037,0.2524008586600383,0.7899142566487429,0.7660084254870985,0.6854978354978355,0.6045899970305011,0.1772509717002345,0.1816800714924039
0.2412300343334826,0.2083903695949754,0.4121931908155187,0.8149030282408983,0.344449179629235,0.2623432380521975,0.7944775468681877,0.7701948393891522,0.6914862914862915,0.6106562592796845,0.1824869101538659,0.1877569258266309
0.2402597402597402,0.2095981963121024,0.4166270783847982,0.8148179652943179,0.3423183464734711,0.2648288329002373,0.7962505449789276,0.7711953659820958,0.6934343434343434,0.6115471089806135,0.183643313738717,0.1899910634495085
0.2306314375279892,0.198566712295676,0.415360253365004,0.8261313371895204,0.3359258470061794,0.2565811772681053,0.7916872547594827,0.7669826224328594,0.6882034632034632,0.6053535824884403,0.1780219074234685,0.1846291331546023
0.2292133154202119,0.1930107093968918,0.4074425969912906,0.829874106839061,0.3375239718730023,0.2499152638119986,0.7889841592791745,0.7645866245392311,0.6845598845598845,0.6015780766130743,0.1755484886447592,0.1798033958891867
0.2375727720555306,0.2022707142281987,0.4079176563737134,0.8202619938754679,0.3432772213935648,0.2565811772681053,0.7895364045923557,0.7666666666666666,0.6867243867243867,0.6050142111738006,0.1787928431467026,0.1823503127792671
0.2465293327362293,0.2124164586520653,0.4087094220110847,0.8097992514460702,0.3494566375452801,0.2639249802282228,0.7935474494986194,0.7705371248025277,0.6906565656565655,0.6100623594790651,0.1829366226590858,0.1885165326184093
0.2427974324526048,0.211772284402931,0.4155186064924783,0.8122660768969038,0.3445557212870232,0.2659586487402553,0.7961052172649324,0.7720115850447604,0.6939393939393939,0.6140923938404107,0.1839002923131284,0.1905272564789991
0.2345872518286311,0.2005797568242209,0.4109263657957245,0.8228138822728821,0.3401875133177072,0.2564681956841035,0.7913384682458945,0.7670089520800422,0.6865079365079365,0.60552326814576,0.17782917349266,0.1838248436103663
0.2292133154202119,0.1936548836460262,0.4085510688836105,0.8295338550527391,0.3372043468996377,0.2507061349000113,0.7872983577968319,0.7635597682991048,0.6827200577200577,0.6017053408560642,0.1749060422087308,0.1786863270777479
0.2331691297208538,0.1991303647636686,0.4110847189231988,0.8244300782579108,0.3391220967398253,0.2554513614280871,0.7903211742479291,0.7655871511321748,0.6848124098124098,0.6031476689432826,0.1766727699078089,0.1802502234137623
0.2394387221973428,0.2084708913761172,0.4161520190023753,0.815923783599864,0.3418921798423183,0.263811998644221,0.7944775468681877,0.7695892575039494,0.6896825396825397,0.6092987740211259,0.181426873534419,0.1861930294906166
0.2399611882370503,0.2067799339721394,0.4117181314330958,0.8165192242259273,0.3438099296825058,0.2609874590441758,0.7943903502397907,0.770221169036335,0.6906204906204906,0.6097654095787555,0.1839002923131284,0.1891867739052725
0.2310792655620241,0.1942185361140188,0.4058590657165479,0.8281728479074516,0.3394417217131898,0.2501412269800022,0.7906990263043162,0.7660084254870985,0.6842712842712841,0.6026386119713232,0.1792746779737239,0.183467381590706
0.2263770712046574,0.1877767936226749,0.4031670625494855,0.8342973800612454,0.3369912635840613,0.2447181109479155,0.7887225693939834,0.7625329120589784,0.6792568542568541,0.598226784881008,0.1760303234717805,0.1786416443252904
0.2297357814599193,0.1927691440534664,0.4058590657165479,0.8297890438924804,0.3384828467930961,0.249124392723986,0.7885481761371893,0.7643496577145866,0.6828643578643578,0.6012387052984347,0.1787607208249012,0.1809204647006256
0.2413793103448275,0.2049279330058781,0.4050673000791767,0.8166893501190882,0.3470061794161517,0.257372048356118,0.7931114663566342,0.7686677198525539,0.6891053391053391,0.6081109744198872,0.1840609039221355,0.1877569258266309
0.2400358262427228,0.2047668894435945,0.4074425969912906,0.8175399795848929,0.3451949712337523,0.2580499378601288,0.7955239064089522,0.7697472353870458,0.6901875901875901,0.6095957239214356,0.1851851851851852,0.1898570151921358
0.2292879534258844,0.1926886222723247,0.4066508313539193,0.8300442327322218,0.3378435968463669,0.2493503558919896,0.7906990263043162,0.7657977883096366,0.6856421356421357,0.6034870402579222,0.1809129163855963,0.1844950848972296
0.2267502612330198,0.1872936629358241,0.4015835312747427,0.8343824430078258,0.3377370551885787,0.2437012766918992,0.7878796686528121,0.7632438125329121,0.6811327561327561,0.5984388919526578,0.1782788859978799,0.1796246648793565
0.2324227496641289,0.195345841050004,0.4050673000791767,0.8268118407621641,0.34061367994886,0.2507061349000113,0.7909315506467083,0.7645602948920484,0.6827922077922077,0.600050905697196,0.1795959011917381,0.1812332439678284
0.2388416181519629,0.2053305419115871,0.4112430720506731,0.8179652943177952,0.3430641380779884,0.2598576432041576,0.7943031536113937,0.7685097419694575,0.6883838383838384,0.6064989606753489,0.1838039253477241,0.1871313672922251
0.2407075682937751,0.2051694983493034,0.4068091844813936,0.8169445389588296,0.3459407628382697,0.2581629194441306,0.7941287603545997,0.7699315429173249,0.6907647907647908,0.6087897170491665,0.1857633869776107,0.1894548704200178
0.228616211374832,0.1934938400837426,0.4096595407759303,0.8299591697856414,0.3363520136373322,0.2510450796520166,0.7911640749891004,0.7664560294892049,0.6861471861471861,0.603741568743902,0.1818123413960361,0.1849865951742627
0.2286908493805045,0.1898703599323617,0.402375296912114,0.8319156175569923,0.3388024717664606,0.2458479267879335,0.7868042435692486,0.762374934175882,0.681060606060606,0.598269206295338,0.17805402974527,0.1793118856121537
0.2343633378116136,0.1992108865448103,0.4087094220110847,0.8236645117386867,0.3407202216066481,0.2546604903400745,0.7886644383083854,0.7645339652448657,0.684054834054834,0.6011538624697748,0.1803025922713693,0.1819034852546917
0.2393640841916703,0.2100008052178114,0.4191607284243864,0.8151582170806397,0.3408267632644364,0.2659586487402553,0.7936346461270164,0.7687467087941022,0.6905122655122655,0.6079837101768973,0.1848318396453696,0.1888739946380697
0.2369756680101507,0.2062162815041468,0.4167854315122724,0.8185607349438585,0.3399744300021308,0.2624562196361993,0.7938671704694085,0.7693786203264876,0.6914862914862915,0.6103168879650448,0.1852815521505894,0.1891867739052725
0.2330944917151813,0.198566712295676,0.4101346001583532,0.8247703300442327,0.3394417217131898,0.2546604903400745,0.7905246330475222,0.7660874144286467,0.6856421356421357,0.6025961905569932,0.1801098583405608,0.1831992850759607
0.2274220032840722,0.1898703599323617,0.4050673000791767,0.832596121129636,0.3369912635840613,0.246751779459948,0.7881121929952042,0.7627962085308057,0.6800865800865801,0.5970814066940993,0.1750987761395393,0.1776139410187667
0.2295865054485744,0.1951847974877204,0.4109263657957245,0.8285130996937735,0.3366716386106967,0.252626821828042,0.7894201424211597,0.7632964718272774,0.6825396825396824,0.6001781699401858,0.1766406475860075,0.1794012511170688
0.2378713240782206,0.2050084547870198,0.4126682501979414,0.818645797890439,0.3419987215001066,0.2600836063721613,0.792704548757448,0.7671406003159558,0.6883838383838384,0.6063716964323591,0.1820050753268446,0.1857908847184986
0.2364532019704433,0.2046863676624527,0.4152019002375298,0.8196665532494046,0.340080971659919,0.2607614958761721,0.7945647434965848,0.7691943127962085,0.6907647907647908,0.6085351885631868,0.1836754360605184,0.1882931188561215
0.225705329153605,0.195345841050004,0.419477434679335,0.8306396733582851,0.3310249307479224,0.2557903061800926,0.7929080075570412,0.7663243812532912,0.6870851370851371,0.6038264115725619,0.1801741029841636,0.1839142091152815
0.2253321391252425,0.1993719301070939,0.4283452098178939,0.8287682885335148,0.3277221393564883,0.2617783301321885,0.7932567940706292,0.7648762506582412,0.6853174603174603,0.602765876214313,0.1785358645722913,0.1818141197497765
0.2361546499477534,0.2204686367662452,0.4467141726049089,0.8114154474310992,0.3293202642233113,0.2831318495085301,0.7975875599476819,0.7688256977356503,0.6914502164502164,0.6087897170491665,0.1823262985448588,0.1873994638069705
0.2480967308553515,0.239391255334568,0.4584323040380048,0.7946580469547465,0.3339015555082036,0.3005310134448085,0.8061328295305915,0.7762243285939968,0.7008658008658009,0.6182921138590761,0.1885259066525328,0.1949061662198391
0.2503358710255262,0.2433368226105161,0.4615993665874902,0.7913405920381084,0.3343277221393565,0.3044853688848717,0.8102601366080512,0.7788572933122696,0.7039682539682539,0.623000890849701,0.1908065915004336,0.1971403038427167
0.2442901925660546,0.2374587325871648,0.4628661916072843,0.7978904389248044,0.3296398891966758,0.3008699581968139,0.8085452695829095,0.7760663507109005,0.7005772005772005,0.6191829635600051,0.1879155825383058,0.1916890080428954
0.2416778623675175,0.2359288187454707,0.4652414885193984,0.8001871384824771,0.326976347751971,0.3005310134448085,0.807586106670542,0.7734860452869932,0.6961399711399712,0.61468629364103,0.1855706530468022,0.187846291331546
0.2531721152410807,0.2514695225058378,0.4715756136183689,0.7853861857774754,0.3330492222458981,0.31374985877302,0.8084871384973114,0.7757503949447078,0.699062049062049,0.619310227802995,0.1892325977321641,0.1924486148346738
0.2685475444096133,0.2738545776632579,0.4831353919239905,0.7648009527050017,0.340080971659919,0.3336346175573381,0.8106670542072374,0.7802264349657715,0.7075036075036075,0.6292368387562042,0.1942436799331856,0.1998212689901698
0.2696671144947007,0.2835977131814156,0.4997624703087886,0.7590166723375299,0.3352865970594502,0.3462885549655405,0.8079058276413312,0.7808583464981569,0.71002886002886,0.6336062444321895,0.1979056246185474,0.2037533512064343
0.2633228840125391,0.2851276270231097,0.5162311955661124,0.7618237495746852,0.3252716812273599,0.3532934131736527,0.7948263333817759,0.7733280674038967,0.7039321789321789,0.6294489458278539,0.1953358388744338,0.2002680965147453
0.2676518883415435,0.2922135437635881,0.5209817893903406,0.755614154474311,0.3267632644363946,0.3599593266297593,0.7807004795814562,0.7649025803054239,0.6956349206349206,0.6228736266067112,0.1929909093829301,0.1997319034852546
0.2752649649201373,0.3024398099685965,0.5249406175771972,0.7459169785641374,0.330811847432346,0.3685459270138967,0.7761662549048104,0.7640863612427594,0.6969336219336218,0.6265642896534172,0.197038321929909,0.2053619302949061
0.2889983579638752,0.3137128593284484,0.5179730799683295,0.7321367812181014,0.3430641380779884,0.3739690430459835,0.7746257811364627,0.7652711953659821,0.6992424242424242,0.6306367454290926,0.2021457710963348,0.2124664879356568
0.283176593521421,0.3025203317497383,0.5083135391923991,0.7413235794487922,0.3421052631578947,0.3626708846458027,0.7676791164074989,0.761216429699842,0.6925324675324674,0.6222797268060918,0.1994474960650155,0.2104110813226094
0.2746678608747574,0.2856912794911023,0.4932699920823438,0.7550187138482478,0.3411463882378009,0.3454976838775279,0.7589594535677954,0.7521063717746183,0.6783549783549784,0.606541382089679,0.1913847932928592,0.2025022341376228
0.2699656665173906,0.2830340607134229,0.4980205859065717,0.7591867982306907,0.3361389303217558,0.3453847022935261,0.7511408225548611,0.7456556082148499,0.6697330447330447,0.5971662495227591,0.1875943593202916,0.1987488829311886
0.2786983131810718,0.2956759803526854,0.5043547110055424,0.7475331745491665,0.3401875133177072,0.3564568975257032,0.7515477401540474,0.7466034755134281,0.6711038961038961,0.5998387986255462,0.1915775272236677,0.2047363717605004
0.2942230183609494,0.3141959900152991,0.5079968329374506,0.7289043892480437,0.3500958874920093,0.3708055586939328,0.7552681296323208,0.7511848341232228,0.6772005772005771,0.6081109744198872,0.1995117407086184,0.2164432529043789
0.3042245111210628,0.3154843385135679,0.4889944576405385,0.7225246682545083,0.3636266780311102,0.364817534741837,0.7586397325970062,0.7539231174302264,0.6806998556998557,0.6115471089806135,0.202466994314349,0.2208668453976764
0.3045230631437528,0.2912472823898865,0.4408551068883611,0.7351139843484179,0.3800340933304922,0.3306970963732911,0.7593954367097805,0.7534491837809373,0.6784271284271284,0.607389810376278,0.1991262728470013,0.216130473637176
0.3019853709508882,0.2765117964409373,0.4172604908946952,0.7443007825791087,0.3862135094822075,0.311942153428991,0.7607324516785351,0.7523696682464455,0.6753246753246753,0.6024689263140034,0.1954000835180367,0.2111706881143878
0.3008658008658008,0.2769144053466463,0.4204275534441806,0.7447260973120109,0.38429575964202,0.3132979324370127,0.7658189216683622,0.7551079515534492,0.6781024531024531,0.6049293683451407,0.1961067745976679,0.2117962466487935
0.3068368413195999,0.2873017151139383,0.4280285035629455,0.735879550867642,0.3860004261666311,0.3233532934131736,0.7729690451969191,0.7618220115850447,0.6885642135642135,0.6166376787002079,0.2023385050271433,0.2189008042895442
0.3015375429168532,0.2740961430066833,0.4134600158353128,0.7459169785641374,0.3870658427445131,0.3088916506609422,0.7762534515332074,0.7657977883096366,0.691991341991342,0.6204131845755738,0.2032700523593845,0.2188561215370866
0.289595462009255,0.2424510830179563,0.3765637371338084,0.7693943518203472,0.3910078840826763,0.2735284148683765,0.7759918616480163,0.7652711953659821,0.6884199134199134,0.6139227081830908,0.1968134656772991,0.2088025022341376
0.2736229287953425,0.2162815041468717,0.3589865399841647,0.792361347397074,0.3855742595354783,0.2488984295559823,0.7784624327859323,0.7657187993680885,0.6865440115440115,0.609341195435456,0.1899071664899939,0.1972743521000894
0.2590685176892073,0.2074241082212738,0.3722882026920032,0.8052909152773052,0.370658427445131,0.2474296689639588,0.782706002034588,0.7666929963138494,0.6853535353535354,0.6063716964323591,0.1861488548392277,0.1920911528150134
0.2466039707419017,0.206135759723005,0.3961995249406176,0.813031643416128,0.353718303856808,0.2551124166760818,0.787589013224822,0.7680358083201685,0.687987012987013,0.6081109744198872,0.1849924512543767,0.1916890080428954
0.2351097178683385,0.1971978420162654,0.4031670625494855,0.8243450153113304,0.3431706797357767,0.2512710428200203,0.7902921087051301,0.7681147972617166,0.6866883116883117,0.6056929538030799,0.1809129163855963,0.187846291331546
0.2213016868189281,0.180529833319913,0.3996832937450515,0.8410173528411025,0.3345408054549328,0.2382781606598125,0.7866007847696556,0.763638757240653,0.6793290043290043,0.5965299283078098,0.1736853939802769,0.1788203753351206
0.2204806687565308,0.1755374828891215,0.3916072842438639,0.8440796189179993,0.3366716386106967,0.2319511919557112,0.7842464758029356,0.7620063191153238,0.6774891774891775,0.5927968438467739,0.1708265073399505,0.1747095621090259
0.2311539035676966,0.1862468797809807,0.3900237529691212,0.832425995236475,0.3447688046025996,0.2388430685798215,0.7870948989972388,0.7657451290152711,0.6823953823953823,0.598141942052348,0.1747775529215251,0.1785522788203753
0.2392894461859978,0.1934133183026008,0.3868566904196358,0.8239197005784281,0.3516940123588323,0.2427974240198847,0.7922395000726639,0.7702474986835176,0.6889610389610389,0.60552326814576,0.1796601458353409,0.1852993744414655
0.2376474100612031,0.1901119252757871,0.3838479809976247,0.8266417148690032,0.3514809290432559,0.2394079764998305,0.7927336143002471,0.7706161137440758,0.6898268398268398,0.6065838035040089,0.1809129163855963,0.1871760500446827
0.2251082251082251,0.1780336581045173,0.3866983372921615,0.8401667233752979,0.3415725548689537,0.2319511919557112,0.7885481761371893,0.7664560294892049,0.6841991341991341,0.5986509990243075,0.1759982011499791,0.1803395889186773
0.2216002388416181,0.1736049601417183,0.3855898653998417,0.8445049336509016,0.3394417217131898,0.2284487628516552,0.7856706874000873,0.7640337019483938,0.6797619047619047,0.5933059008187334,0.1721756448556101,0.1750670241286863
0.2304821615166442,0.1818181818181818,0.3828978622327791,0.8351480095270502,0.3466865544427871,0.2333069709637328,0.7879668652812092,0.7660347551342812,0.6831890331890331,0.5980995206380181,0.1748096752433265,0.1785522788203753
0.2375727720555306,0.191319751992914,0.3865399841646874,0.8260462742429399,0.3505220541231621,0.2412156818438595,0.7931114663566342,0.771274354923644,0.6901875901875901,0.6066262249183388,0.1795316565481353,0.1846291331546023
0.2307060755336617,0.1878573154038167,0.3941409342834521,0.8318305546104118,0.3430641380779884,0.241441645011863,0.795087923266967,0.7726698262243286,0.6922438672438672,0.6086624528061766,0.1803025922713693,0.1851206434316354
0.222495894909688,0.1768258313873903,0.3898653998416468,0.8422932970398095,0.3386959301086725,0.2321771551237148,0.7897689289347478,0.7676408636124276,0.6863997113997113,0.6020022907563739,0.1749702868523337,0.1786863270777479
0.2222719808926705,0.1779531363233755,0.3925574030087095,0.8418679823069072,0.3376305135307905,0.2339848604677437,0.7836360994041563,0.7634807793575565,0.6854978354978355,0.6025537691426632,0.1744884520253124,0.176586237712243
0.235184355874011,0.1903534906192125,0.3895486935866984,0.8279176590677102,0.3478585126784572,0.2415546265958648,0.7823572155209999,0.7684570826750922,0.6996031746031746,0.619310227802995,0.1823584208666602,0.1836014298480786
0.2551127033885654,0.2028343666961913,0.3716547901821062,0.809969377339231,0.3679948860004262,0.2439272398599028,0.7854672286004941,0.7827014218009478,0.7281746031746031,0.6504051245068512,0.1945327808293983,0.1955317247542448
0.2707120465741155,0.2016265399790643,0.3361836896278701,0.8017182715209255,0.3911144257404645,0.2304824313636877,0.7776776631303589,0.7852290679304897,0.7472943722943722,0.6803970644381284,0.2044264559442356,0.2028596961572833
0.2825794894760412,0.209759239874386,0.3271575613618369,0.7906600884654644,0.4026209247815895,0.2329680262117275,0.7467809911350094,0.7529225908372827,0.7363275613275613,0.7117464896279642,0.2227683016928463,0.2147453083109919
0.2897447380206001,0.2220790723890812,0.3363420427553444,0.7800272201429059,0.4046452162795653,0.2448310925319173,0.7280627815724459,0.726987888362296,0.7209595959595959,0.7265091418147882,0.2346856830811731,0.2234584450402144
0.2970592625765039,0.2331105564055077,0.3423594615993666,0.7700748553929909,0.4078414660132111,0.2547734719240763,0.7288475512280191,0.7263559768299105,0.722979797979798,0.7322784541636619,0.2393755420641804,0.228775692582663
0.3113151216599492,0.264594572831951,0.3740300870942201,0.7453215379380741,0.4073087577242701,0.2882160207886114,0.7119023397761953,0.693707214323328,0.7032828282828283,0.7517074619267807,0.2629212039446211,0.2505361930294906
0.3380355276907001,0.3265158225299944,0.4391132224861442,0.6973460360666894,0.4045386746217771,0.354875155349678,0.64205784043017,0.591284886782517,0.6247113997113997,0.7795783311415603,0.3161157688477723,0.2971849865951743
0.3864009553664726,0.4100169095740398,0.5008709422011085,0.625723035045934,0.4182825484764542,0.4354310247429668,0.5404447028048249,0.4770405476566614,0.5389971139971139,0.8273872650914182,0.39796344479779,0.3677837354781054
0.4577548887893715,0.5150978339640874,0.5559778305621537,0.5295168424634229,0.4506712124440656,0.5288667947124618,0.4413893329457927,0.3793048973143759,0.4535353535353535,0.870741950536631,0.4990845138286595,0.4606791778373547
0.5505299298402746,0.6402286818584427,0.6052256532066509,0.4105988431439265,0.5003196249733646,0.6341656310021466,0.3246911786077604,0.2632174828857293,0.3284632034632034,0.8695965723497222,0.6124763097876715,0.5744861483467382
0.6639050604567845,0.7679362267493357,0.6156769596199525,0.2785811500510378,0.5776688685275942,0.7274884193876396,0.1991570992588285,0.1489204844655081,0.2076479076479076,0.8740508208543672,0.7508913944299893,0.7119302949061662
0.7905657560829975,0.8627908849343747,0.5338083927157562,0.1562606328683226,0.6957170253569145,0.7647723421082362,0.0978346170614735,0.0803317535545023,0.136976911976912,0.8944130997327452,0.8907198612315699,0.850402144772118
0.8937901179280491,0.8812303728158466,0.3509105304829771,0.0876998979244641,0.8308118474323459,0.7124618687153993,0.0623455893038801,0.0893891521853606,0.1353174603174603,0.8868196665676835,0.9607144004368636,0.9326184092940124
0.9209583519928348,0.8451566148643207,0.2221694378463974,0.0912725416808437,0.893564883869593,0.6412834707942604,0.0939979654120039,0.1324381253291205,0.1254689754689755,0.7582403597335937,0.9206257428286916,0.9358355674709562
0.8914763397522018,0.7804171028263145,0.1575613618368962,0.142225246682545,0.8943106754741104,0.572816630889165,0.158261880540619,0.1821221695629278,0.0879509379509379,0.5159292410808977,0.782307025151778,0.8743521000893656
0.8406478578892372,0.7104436750140914,0.1277909738717339,0.2082340932289895,0.8679948860004261,0.5130493729522088,0.2435692486557186,0.2423117430226435,0.0705627705627705,0.299113392440504,0.6399730172496868,0.8004021447721179
0.7857142857142857,0.6414365085755698,0.1086302454473475,0.2759441987070433,0.8352865970594502,0.4578013783753247,0.323557622438599,0.3120326487625066,0.0932900432900433,0.1631527595130021,0.5276412579101217,0.7297587131367291
0.703836393491566,0.6029470971897899,0.2064924782264449,0.3429738006124532,0.7438738546771788,0.4657100892554512,0.3966865281209126,0.3766192733017378,0.1495670995670995,0.1365121113137911,0.4363174970286852,0.6542895442359249
0.6120316465144052,0.5749255173524438,0.3463182897862232,0.4100034025178632,0.6313658640528447,0.4959891537679357,0.4674320592937073,0.4365718799368088,0.2218253968253968,0.1750731769397191,0.3630143586778452,0.574888293118856
0.5151515151515151,0.536436105966664,0.4761678543151227,0.4855392990813202,0.518538248455146,0.5153090046322448,0.5423048975439616,0.5045550289626118,0.3146464646464647,0.2532982649641539,0.3086312678680415,0.4976764968722073
0.4117778772951186,0.4754811176423222,0.5754552652414886,0.5767267778155836,0.4112507990624334,0.5079652016721273,0.6253742188635373,0.585781990521327,0.4272005772005772,0.3574852585585204,0.2631460601972311,0.4127792672028597
0.3088520674727571,0.402689427490136,0.6509897070467142,0.6737835998638995,0.3123801406349882,0.4839001242797424,0.7005377125417818,0.6630858346498156,0.5361471861471861,0.4595936028507191,0.2248241302881372,0.32609472743521
0.2443648305717271,0.3169337305741203,0.6190023752969122,0.755784280367472,0.2772213935648839,0.4122698000225963,0.7502979218136898,0.7182464454976303,0.6124098124098124,0.5255164807194672,0.1836754360605184,0.2421358355674709
0.2139125242573518,0.2464771720750463,0.5450514647664292,0.8103946920721335,0.2803111016407414,0.3364591571573834,0.785496294143293,0.7568983675618747,0.6630952380952381,0.5650532388749842,0.155407792875269,0.1848972296693476
0.2084639498432601,0.2132216764634834,0.4913697545526524,0.8310649880911877,0.2944811421265715,0.2939780815727036,0.8096497602092719,0.7827277514481306,0.6963924963924965,0.5944512790056421,0.1500112428126305,0.165638963360143
0.2096581579340199,0.2024317577904823,0.467458432304038,0.8360837019394354,0.3033240997229916,0.277934696644447,0.824821973550356,0.800763559768299,0.7195887445887446,0.6159589360709287,0.1519707044425171,0.1612153708668454
0.199880579190924,0.1847169659392865,0.4533650039588282,0.8509697175910174,0.3011932665672277,0.2604225511241668,0.832204621421305,0.8088467614533965,0.7306637806637807,0.6251219615661987,0.1501718544216376,0.1538873994638069
0.1884609643230332,0.1640228681858442,0.4368962787015044,0.8684926845865941,0.2985297251225229,0.2399728844198395,0.8340066850748438,0.8109531332280148,0.7332251082251081,0.6246977474228992,0.1446789373935948,0.1444593386952636
0.1770413494551425,0.1508172960785892,0.4351543942992875,0.8819326301463084,0.290965267419561,0.2301434866116823,0.8360122075279756,0.8141126908899421,0.7386363636363636,0.6290247316845544,0.1439080016703607,0.1419571045576407
0.1827138378862516,0.1527498188259924,0.4269200316706256,0.8776794828172849,0.2977839335180055,0.228561744435657,0.8429588722569394,0.8208530805687203,0.7487373737373737,0.637721121622195,0.1475699463557226,0.1462019660411081
0.1925660546350201,0.1587889524116273,0.4178939034045922,0.8689179993194965,0.3077988493500959,0.2295785786916732,0.8496148815579131,0.8275144813059505,0.7576839826839826,0.6479871038900438,0.1514246249718929,0.1513404825737265
0.1906254664875354,0.152508253482567,0.4096595407759303,0.8733412725416809,0.3092904325591306,0.2222347757315557,0.8503415201278883,0.8286203264876251,0.7607503607503606,0.6510838671361303,0.1507179338922617,0.1495084897229669
0.1817435438125093,0.1397858120621627,0.4034837688044339,0.8850799591697858,0.3050287662476028,0.2110495989153767,0.8476384246475803,0.8270405476566615,0.7595959595959596,0.6471386756034447,0.1457068516912402,0.141331546023235
0.1783101955515748,0.1384169417827522,0.4079176563737134,0.8878019734603607,0.3010867249094395,0.2117274884193876,0.8478128179043743,0.8278304370721431,0.7600288600288599,0.6462902473168456,0.1427194757637082,0.1367292225201072
0.1846544260337363,0.1484016426443353,0.4140934283452099,0.8788703640694115,0.3035371830385681,0.2209919783075358,0.8521435837814271,0.832201158504476,0.7667748917748917,0.6535867305815977,0.1457068516912402,0.1412868632707774
0.1898790864308105,0.1555680811659553,0.4172604908946952,0.8721503912895543,0.3060941828254847,0.2270929838436335,0.8578694957128324,0.8374144286466562,0.7746392496392496,0.6618164849616086,0.150203976743439,0.1476318141197497
0.1879384982833258,0.1503341653917384,0.4110847189231988,0.8759782238856755,0.3068399744300021,0.2212179414755395,0.8586833309112049,0.8373354397051078,0.7751803751803752,0.6625376490052179,0.1493366740548007,0.1447274352100089
0.180773249738767,0.1400273774055882,0.4060174188440222,0.885505273902688,0.3034306413807798,0.2121794147553948,0.854236302862956,0.8337282780410742,0.770995670995671,0.6583379289865525,0.1432334329125309,0.1371760500446827
0.1789072995969547,0.142120943715275,0.4140934283452099,0.8854202109561076,0.2993820583848284,0.2165856965314653,0.8535096642929807,0.8337546076882569,0.7723304473304473,0.6568956008993341,0.1400854453759918,0.1329311885612153
0.1857739961188237,0.1539576455431194,0.4228028503562946,0.8752977203130318,0.3012998082250159,0.2278838549316461,0.8582764133120186,0.8383622959452344,0.7794372294372294,0.6643617698214058,0.1431049436253252,0.1361036639857015
0.1942827287654873,0.1694983493034866,0.4353127474267618,0.8622830894862199,0.3032175580652035,0.243249350355892,0.8627234413602675,0.8435755660874144,0.7881313131313131,0.6737369023883257,0.1483087597571552,0.1420464700625558
0.1956262128675922,0.1674047829937998,0.4281868566904196,0.8625382783259613,0.3066268911144257,0.2392949949158287,0.8621130649614882,0.8442601369141652,0.7895382395382394,0.6743308021889451,0.1477305579647297,0.1405272564789991
0.1818181818181818,0.1556486029470971,0.4345209817893903,0.8766587274583192,0.2945876837843597,0.2333069709637328,0.859322772852783,0.8412848867825171,0.7861111111111111,0.6697068680269801,0.1417236837878642,0.1331099195710455
0.1758471413643827,0.1515419921088654,0.4391132224861442,0.8822728819326302,0.2887278926060089,0.232064173539713,0.8610085743351257,0.8426276987888361,0.787950937950938,0.6696220251983203,0.1391538980437506,0.129579982126899
0.1822660098522167,0.1585473870682019,0.4392715756136184,0.8748724055801292,0.2933091838909014,0.2370353632357925,0.8657462578113647,0.8484728804634017,0.7974025974025973,0.6775124082636915,0.1419164177186727,0.1340482573726541
0.1847290640394088,0.1618487800950157,0.4406967537608868,0.871725076556652,0.2945876837843597,0.2398599028358377,0.8708908588867896,0.8540284360189573,0.8051948051948051,0.6845119416281339,0.1447431820371976,0.137444146559428
0.1748022092849679,0.1502536436105966,0.4387965162311956,0.8834637631847567,0.288195184317068,0.2310473392836967,0.8709199244295887,0.8551079515534492,0.8059523809523809,0.6843422559708142,0.1415951945006585,0.1341823056300268
0.1637557844454396,0.138094854658185,0.4383214568487729,0.8962232051718272,0.2804176432985297,0.2223477573155575,0.8682749600348786,0.8524223275408109,0.8033549783549784,0.6795062147371993,0.1346567729915518,0.1260500446827524
0.1604717121958501,0.1360012883484983,0.4411718131433096,0.8992004083021437,0.2771148519070956,0.2218958309795503,0.8694375817468392,0.853686150605582,0.8064213564213564,0.6782759937216307,0.1318300086730268,0.122207327971403
0.1632333184057322,0.1413962476849987,0.4459224069675376,0.8947771350799593,0.2775410185382485,0.227318947011637,0.8757738700770237,0.8609531332280147,0.8155122655122655,0.6868451194162815,0.13597378818541,0.126988382484361
0.1682340647857889,0.1471938159272083,0.4467141726049089,0.8888227288193263,0.2808438099296825,0.2317252287877075,0.8822845516640023,0.8676671932596103,0.824025974025974,0.6950748737962925,0.139571488227169,0.1324843610366398
0.1666666666666666,0.1426040744021257,0.4411718131433096,0.8922252466825451,0.2815896015341999,0.2265280759236244,0.8831565179479727,0.8702738283307003,0.8287878787878787,0.6979171085563993,0.1372908033792682,0.1288203753351206
0.1556202418271383,0.1329414606651099,0.4456057007125892,0.9035386185777476,0.2722139356488386,0.2213309230595412,0.881267257666037,0.8706424433912585,0.8291847041847041,0.6953718236966021,0.1308663390189842,0.1206881143878463
0.1518883415435139,0.1355181576616474,0.4584323040380048,0.9043892480435524,0.2651821862348178,0.2276578917636425,0.8827786658915856,0.8725118483412323,0.8318181818181819,0.6963475162261911,0.1263049693231826,0.1159070598748883
0.1600985221674877,0.1496094693614623,0.4688836104513064,0.8922252466825451,0.267526102706158,0.2413286634278612,0.8890858886789711,0.8790942601369142,0.8413059163059163,0.7054681203071311,0.1276219845170409,0.1171134941912421
0.1653978205702343,0.1601578226910379,0.4782264449722883,0.8836338890779177,0.2681653526528872,0.252061913908033,0.8956547013515478,0.8862295945234334,0.8514069264069264,0.7153523098460104,0.1299026693649417,0.1193476318141197
0.1598746081504702,0.1534745148562686,0.4766429136975456,0.8903538618577749,0.264756019603665,0.2468647610439498,0.8957709635227438,0.8868088467614534,0.852020202020202,0.7144614601450813,0.1273650059426295,0.1164879356568364
0.1501716674130467,0.141718334809566,0.4742676167854316,0.9020074855392992,0.2585766034519497,0.2377132527398033,0.8944048830111903,0.8876250658241179,0.8525974025974026,0.7112374326560048,0.1211653978349555,0.1072832886505808
0.147783251231527,0.1430066833078347,0.4818685669041965,0.9026879891119428,0.2543149371404218,0.2413286634278612,0.8974858305478856,0.8919431279620852,0.8582251082251081,0.7143766173164214,0.1188204683434518,0.1038427167113494
0.1521122555605314,0.1537966019808358,0.4937450514647665,0.894521946240218,0.2534626038781163,0.2530787481640492,0.9058567068740008,0.9007109004739335,0.8688672438672439,0.7227336359394223,0.1208120522951399,0.1073279714030384
0.1559187938498283,0.1628150414687173,0.5035629453681711,0.8876318475671998,0.2529298955891753,0.2629081459722065,0.9140531899433222,0.9111637704054764,0.8844877344877343,0.7352903745810887,0.1232854710738492,0.110857908847185
0.1500223914017017,0.1576616474756421,0.505938242280285,0.8936713167744131,0.2479224376731301,0.2601965879561631,0.9175991861648016,0.9169036334913112,0.8923160173160173,0.7390658804564545,0.1201696058591115,0.1076854334226988
0.134945514255859,0.1475159030517755,0.5179730799683295,0.90762164001361,0.2330066055827828,0.257372048356118,0.9184420869059732,0.9191679831490256,0.8949494949494949,0.7370296525686167,0.1118820468343451,0.0983467381590705
0.1291983878190774,0.147676946614059,0.5303246239113224,0.910854031983668,0.2248028979330918,0.2618913117161903,0.9221043452986484,0.923591363875724,0.9002525252525253,0.7395749374284138,0.1057145610484725,0.0924486148346738
0.131736080011942,0.1587889524116273,0.5469517022961204,0.9035386185777476,0.2209673982527168,0.2756750649644108,0.9312309257375382,0.934228541337546,0.9131673881673882,0.7501802910109023,0.1052969708650541,0.093118856121537
0.1363636363636363,0.1703035671149045,0.5597783056215361,0.8948621980265397,0.220008523332623,0.2882160207886114,0.9408516204040108,0.9443127962085308,0.928066378066378,0.7611250159080305,0.105746683370274,0.0945040214477211
0.1331542021197193,0.170142523552621,0.5661124307205068,0.89673358285131,0.2155337737055188,0.2904756524686476,0.945560238337451,0.9512374934175882,0.937085137085137,0.7649429431977263,0.0996755645498056,0.0873547810545129
0.1208389311837587,0.1649086077784041,0.5821060965954079,0.906515821708064,0.2013637332196888,0.2925093209806801,0.9459962214794362,0.954160084254871,0.93989898989899,0.7609977516650406,0.0880472840576916,0.0730563002680965
0.1109120764293178,0.1698204364280537,0.6128266033254157,0.9095780877849609,0.183997443000213,0.3068579821489097,0.9500653974712978,0.9586097946287518,0.9453823953823952,0.7621855512662793,0.0800488259291381,0.0631814119749776
0.1135244066278549,0.1815766164747564,0.6304038004750595,0.9018373596461382,0.1799488600042616,0.3214326064851429,0.9599186164801627,0.9693259610321222,0.9598484848484848,0.7732999618207271,0.0795669911021168,0.0644325290437891
0.1135990446335273,0.1872936629358241,0.6414885193982581,0.8988601565158217,0.176326443639463,0.3293413173652694,0.9688708036622584,0.9785413375460768,0.9724747474747476,0.7819539303440377,0.0799203366419324,0.0672028596961572
0.1019555157486191,0.179724615508495,0.6513064133016628,0.9094079618918,0.1647134029405497,0.3275336120212405,0.9721842755413458,0.9817798841495524,0.977092352092352,0.7826326729733171,0.0745237865792939,0.0634048257372654
0.0880728466935363,0.1686931314920685,0.6590657165479019,0.923188159237836,0.1521414873215427,0.3225624223251609,0.9725039965121348,0.9825697735650342,0.977164502164502,0.7774572604250627,0.0654974141530949,0.0547363717605004
0.0796387520525451,0.1713503502697479,0.682185273159145,0.9265906771010548,0.1382910718090773,0.3327307648853237,0.9733178317105072,0.9843601895734598,0.9794011544011544,0.7767785177957834,0.0588802158620025,0.0477211796246648
0.0839677563815494,0.1859247926564136,0.7016627078384798,0.9163831235113984,0.134881738759855,0.3497909840695966,0.9787821537567214,0.9896261190100052,0.9867243867243868,0.781656980443728,0.0565995310141016,0.0469615728328865
0.0862068965517241,0.2028343666961913,0.7301662707838481,0.906175569921742,0.1268911144257404,0.3718223929499492,0.9845080656881268,0.9951290152711956,0.993939393939394,0.7868323929919824,0.0553146381420448,0.046604110813226
0.0750111957008508,0.1992914083259521,0.7469517022961204,0.9144266757400475,0.1132537822288514,0.375437803638007,0.9840139514605436,0.993707214323328,0.9932178932178932,0.7829720442879567,0.0479586264495197,0.0392761394101876
0.0638901328556501,0.1890651421209437,0.7504354711005543,0.9261653623681524,0.1041977413168549,0.3694497796859112,0.9795959889550936,0.9894944707740916,0.9875180375180376,0.7737665973783566,0.0390607433105264,0.0295352993744414
0.0637408568443051,0.1922054915854739,0.7569279493269994,0.924634229329704,0.1018538248455145,0.3739690430459835,0.977241679988374,0.9868615060558188,0.9853896103896104,0.7707546769609299,0.0353987986251646,0.0275692582663092
0.0668010150768771,0.2058941943795797,0.7771971496437056,0.9156175569921742,0.097165991902834,0.3908032990622528,0.9783171050719373,0.9878620326487624,0.9891774891774892,0.7767785177957834,0.0393498442067392,0.0348972296693476
0.0752351097178683,0.2153152427731701,0.7778305621536027,0.9058353181354204,0.1030257830811847,0.3976951756863631,0.977997384101148,0.9872301211163772,0.9897546897546896,0.7805964450854793,0.0434293790755195,0.0419124218051831
0.0723242274966412,0.2123359368709235,0.7783056215360254,0.9091527730520584,0.1007884082676326,0.3957744887583323,0.9720680133701498,0.9805687203791468,0.982106782106782,0.7760997751665041,0.0430117888921011,0.0418230563002681
0.0680698611733094,0.2057331508172961,0.774505146476643,0.915022116366111,0.0990837417430215,0.3897864648062365,0.963086760645255,0.9698525539757769,0.9695887445887446,0.7668943282569042,0.0408595933314059,0.0385612153708668
0.0756829377519032,0.2127385457766326,0.7718131433095804,0.9070261993875468,0.105369699552525,0.393627838662298,0.9547740154047376,0.9608741442864666,0.9602092352092352,0.7604886946930811,0.0440075808679451,0.041733690795353
0.0893416927899686,0.2274740317255818,0.7719714964370546,0.8914596801633209,0.1150649904112507,0.4040221443904643,0.9501816596424938,0.954844655081622,0.9533910533910532,0.7608280660077208,0.0533872988339597,0.0533512064343163
0.1014330497089117,0.2390691682100008,0.7691211401425179,0.8783599863899286,0.1246537396121883,0.41125296576658,0.9433803226275252,0.9458662453923116,0.9442279942279942,0.7607856445933908,0.0644373775336481,0.0655049151027703
0.1049410359755187,0.236572992994605,0.756769596199525,0.8777645457638653,0.1312593223950564,0.4050389786464806,0.9321028920215084,0.9325434439178516,0.9276334776334776,0.7538709540576083,0.0723394686967974,0.0747542448614834
0.1056874160322436,0.226990901038731,0.7363420427553445,0.8823579448792107,0.1387172384402301,0.3910292622302564,0.9154483359976748,0.9141390205371248,0.9042568542568542,0.7400415729860434,0.0771256946452089,0.0796693476318141
0.1197193610986714,0.2334326435300748,0.7192399049881236,0.8709595100374278,0.154485403792883,0.3894475200542311,0.90175846533934,0.8982885729331227,0.8848124098124097,0.7299028549611845,0.086087822427805,0.0891867739052725
0.1367368263919988,0.2442225622030759,0.7043547110055425,0.8555631167063629,0.1716386106967824,0.3917071517342673,0.8937073099840139,0.8869668246445498,0.8710317460317459,0.7268060917150978,0.1000931547332241,0.1055406613047363
0.1494999253619943,0.2506643046944198,0.689944576405384,0.8448451854372236,0.185595567867036,0.3911422438142582,0.8847260572591192,0.8757503949447077,0.8562409812409811,0.7234972213973615,0.1127172272011821,0.1197944593386952
0.1571876399462606,0.2494564779772928,0.6712589073634205,0.8411024157876831,0.1973151502237374,0.3835724776861371,0.8719953495131522,0.860531858873091,0.8367604617604617,0.7122979680142537,0.1201696058591115,0.12609472743521
0.1650992685475444,0.2412432563008294,0.6383214568487728,0.8410173528411025,0.2140421904964841,0.3660603321658568,0.8565906118296759,0.8439441811479725,0.8130952380952381,0.6956687735969118,0.1253412996691401,0.1309651474530831
0.1665173906553216,0.2343989049037765,0.6218527315914489,0.843824430078258,0.2206477732793522,0.3553270816856852,0.8460107542508356,0.8310689836756188,0.7951298701298701,0.6836635133415349,0.1333397577976936,0.1398570151921358
0.1762949693984176,0.237378210806023,0.6069675376088679,0.8365940796189181,0.23258043895163,0.3521635973336345,0.8408661531754105,0.8233807266982622,0.7849206349206349,0.6791668434225598,0.145995952587453,0.1541108132260947
0.1944320047768323,0.2406796038328368,0.5748218527315916,0.8246002041510718,0.2563392286383976,0.3430120890294882,0.8366516494695538,0.8176408636124276,0.7766233766233765,0.6764094514911129,0.1581060679065882,0.1684539767649687
0.2003284072249589,0.2286013366615669,0.5385589865399842,0.8275774072813883,0.2728531855955678,0.3215455880691447,0.8280482488010463,0.8078462348604529,0.7615800865800866,0.6657616764942944,0.1618643795573544,0.1727435210008936
0.1953276608449022,0.2141074160560431,0.5208234362628663,0.838040149710786,0.2751971020669081,0.3050502768048808,0.8182240953349804,0.7969457609268036,0.7450577200577201,0.650532388749841,0.1615431563393402,0.1708668453976765
0.2004776832363039,0.221354376358805,0.524148851939826,0.831320176930929,0.2777541018538248,0.311377245508982,0.812614445574771,0.7903633491311216,0.736038961038961,0.6436601196283884,0.1655905688863191,0.174396782841823
0.2131661442006269,0.2354456880586199,0.524782264449723,0.8166893501190882,0.286597059450245,0.3214326064851429,0.8116843482052027,0.7892048446550817,0.732936507936508,0.6434480125567387,0.1743278404163052,0.1842716711349419
0.2189132706374085,0.2360898623077542,0.5140142517814726,0.813031643416128,0.2943746004687833,0.3180431589650886,0.8120040691759918,0.7877040547656661,0.7302308802308801,0.643151062656429,0.1813947512126176,0.1917336907953529
0.2200328407224959,0.2264272485707384,0.4926365795724466,0.8175399795848929,0.3022586831451097,0.3036944977968591,0.8069175991861648,0.7819115323854661,0.7214285714285714,0.635854579391677,0.1812020172818091,0.1914209115281501
0.2161516644275265,0.2118528061840727,0.4722090261282661,0.8274072813882273,0.3064138077988493,0.2861823522765789,0.8021508501671268,0.7760400210637177,0.712085137085137,0.6261824969244475,0.1783431306414827,0.1888739946380697
0.2122704881325571,0.2053305419115871,0.4676167854315123,0.8331064988091189,0.3052418495631792,0.2799683651564795,0.8006394419415782,0.7733543970510794,0.7078282828282828,0.6219403554914521,0.1791461886865182,0.1885165326184093
0.218987908643081,0.2128190675577744,0.4680918448139352,0.8252807077237156,0.3098231408480716,0.2853914811885663,0.8020927190815289,0.7768562401263823,0.7122655122655123,0.6280490391549655,0.1844784941055539,0.1944593386952636
0.2227198089267054,0.2128190675577744,0.4601741884402217,0.8231541340592039,0.3151502237374813,0.2825669415885211,0.80470861793344,0.7790942601369141,0.7133116883116882,0.6295762100708439,0.1871446468150717,0.1987042001787309
0.2164502164502164,0.1994524518882357,0.4470308788598575,0.8337870023817625,0.3151502237374813,0.2685572251722969,0.8030518819938962,0.7767772511848341,0.7079725829725829,0.6245280617655793,0.1847354726799653,0.194816800714924
0.2089864158829676,0.1942185361140188,0.4527315914489312,0.8407621640013611,0.3079053910078841,0.2668625014122698,0.7983432640604563,0.7721958925750395,0.7038600288600289,0.6187587494167056,0.1813305065690148,0.1890974084003574
0.2088371398716226,0.1930912311780336,0.45083135391924,0.8414426675740048,0.308438099296825,0.2653937408202463,0.7970643801772999,0.770695102685624,0.7025974025974026,0.6161286217282484,0.1809129163855963,0.1890527256478999
0.2152560083594566,0.2016265399790643,0.4538400633412511,0.8332766247022797,0.3119539740038355,0.2723985990283583,0.8006685074843772,0.7745392311743022,0.7075757575757575,0.6224494124634116,0.1848960842889724,0.1950402144772118
0.2186147186147186,0.207343586440132,0.4581155977830562,0.8284280367471929,0.3129128489239292,0.277934696644447,0.8047667490190379,0.7791469194312797,0.713059163059163,0.6291095745132144,0.1873695030676817,0.19781054512958
0.2116733840871771,0.2020291488847733,0.4623911322248614,0.8351480095270502,0.3065203494566376,0.2757880465484126,0.802470571137916,0.776592943654555,0.709090909090909,0.6252492258091885,0.1822941762230573,0.1918677390527256
0.2048813255709807,0.1911587084306305,0.4554235946159937,0.8447601224906431,0.3039633496697208,0.2656197039882498,0.8005522453131813,0.7734597156398104,0.7051226551226552,0.6188435922453654,0.176223057402589,0.1841376228775692
0.2060755336617405,0.1920444480231903,0.4546318289786224,0.843654304185097,0.305135307905391,0.2660716303242571,0.8008138351983722,0.7745129015271195,0.7059523809523809,0.6183769566877361,0.175612733288362,0.1824396782841822
0.2121958501268846,0.2013849746356389,0.4600158353127475,0.8351480095270502,0.3076923076923076,0.2745452491243926,0.804912076733033,0.778909952606635,0.7123015873015872,0.6261400755101175,0.1801741029841636,0.1889633601429848
0.2214509628302731,0.2060552379418632,0.4495645288994458,0.8274072813882273,0.3178137651821862,0.2740933227883855,0.8085743351257085,0.7819641916798314,0.7172799422799423,0.6313154880583719,0.1832578458771,0.1945040214477212
0.2127929541722645,0.1952653192688622,0.4467141726049089,0.838040149710786,0.3125932239505646,0.2653937408202463,0.807673303298939,0.7812796208530806,0.7159812409812409,0.6291944173418742,0.1812020172818091,0.1926720285969615
0.1989102851171816,0.1784362670102262,0.4430720506730009,0.854882613133719,0.3038568080119326,0.2522878770760366,0.8030518819938962,0.7771195365982095,0.7106421356421356,0.6235523692359903,0.1760945681153833,0.184361036639857
0.2021943573667711,0.1792414848216442,0.4376880443388757,0.8525859135760464,0.3080119326656723,0.2509320980680148,0.8020927190815289,0.7761716692996313,0.7093434343434343,0.622110041148772,0.1727538466480357,0.1803395889186773
0.2072697417525003,0.1914002737740558,0.4506730007917657,0.8433140523987751,0.3073726827189431,0.2641509433962263,0.8054643220462142,0.7796735123749342,0.7146464646464646,0.6277945106689857,0.1750666538177379,0.1831099195710455
0.2078668457978802,0.1963926242048474,0.4593824228028504,0.8403368492684588,0.3048156829320264,0.270816856852333,0.8071791890713559,0.7819115323854661,0.7161616161616162,0.6297883171424936,0.1761266904371848,0.1841376228775692
0.2030153754291685,0.1900314034946453,0.4571654790182106,0.8464613814222525,0.3020455998295333,0.2655067224042481,0.8038075861066706,0.7791469194312797,0.7124458874458873,0.6258431256098078,0.1747133082779223,0.1821268990169794
0.196372592924317,0.181335051131331,0.4541567695961995,0.8547975501871384,0.2984231834647347,0.2582759010281323,0.7985757884028485,0.7748025276461294,0.7062049062049062,0.6191829635600051,0.1717901769939931,0.1789991063449508
0.2014479773100462,0.1850390530638537,0.4506730007917657,0.8499489622320519,0.3031110164074153,0.2597446616201558,0.7970643801772999,0.7739599789362822,0.7044733044733045,0.6186314851737157,0.1718865439593974,0.1794012511170688
0.2113001940588147,0.1966341895482728,0.4524148851939826,0.838210275603947,0.3096100575324951,0.2684442435882951,0.8006975730271764,0.7774881516587677,0.7089105339105339,0.6241886904509397,0.1760945681153833,0.1851653261840929
0.2135393342289893,0.2017070617602061,0.4577988915281077,0.8342123171146649,0.3093969742169188,0.2738673596203818,0.8030518819938962,0.7804107424960506,0.713095238095238,0.6280066177406355,0.1795959011917381,0.1886058981233244
0.2082400358262427,0.1922860133666157,0.4505146476642914,0.8422082340932291,0.3081184743234604,0.2647158513162355,0.8009300973695683,0.778251711427067,0.709018759018759,0.6232129979213508,0.1763836690115961,0.1842269883824843
0.1977907150320943,0.178919397697077,0.4463974663499605,0.8553079278666214,0.3019390581717451,0.2538696192520618,0.7965702659497167,0.7732754081095313,0.7012265512265512,0.6134560726254614,0.1701198162603193,0.1761394101876675
0.1959247648902821,0.1755374828891215,0.4437054631828979,0.8581150051037768,0.3015128915405923,0.2504801717320076,0.7956692341229472,0.7723012111637704,0.7000360750360749,0.6106562592796845,0.1689634126754682,0.1758266309204647
0.2056277056277056,0.1835896610033014,0.4387965162311956,0.8483327662470228,0.3101427658214362,0.254434527172071,0.8002034587995931,0.7766192733017377,0.7062049062049062,0.6174012641581471,0.1745205743471138,0.1833780160857908
0.2137632482460068,0.1870520975923988,0.4285035629453682,0.8418679823069072,0.3194118900490091,0.253191729748051,0.8009882284551664,0.7788836229594523,0.7079365079365079,0.6185042209307259,0.1769618708040217,0.187444146559428
0.2062248096730855,0.1775505274176665,0.4258115597783057,0.8511398434841785,0.3149371404219049,0.2455089820359281,0.7979944775468681,0.7750921537651395,0.7019119769119769,0.6114198447376236,0.1724647457518229,0.1825737265415549
0.202642185400806,0.17054513245833,0.4196357878068092,0.8569241238516503,0.3144044321329639,0.238504123827816,0.792762679843046,0.769431279620853,0.6944083694083694,0.6041657828872016,0.1666184831839645,0.1749776586237712
0.2003284072249589,0.1700620017714792,0.4235946159936659,0.8585403198366792,0.3114212657148945,0.2395209580838323,0.7913384682458945,0.7684834123222748,0.6930014430014431,0.6026810333856532,0.165815425138929,0.1741733690795353
0.2057023436333781,0.1831870520975924,0.4380047505938243,0.8485028921401837,0.3104623907948007,0.2538696192520618,0.7950007266385699,0.7725645076355977,0.6975829725829725,0.6084927671488568,0.1708586296617519,0.1810098302055406
0.2106284520077623,0.191319751992914,0.4435471100554237,0.8413576046274244,0.3120605156616237,0.2615523669641848,0.7967446592065107,0.7743285939968404,0.6985930735930735,0.6092987740211259,0.1733962930840641,0.1857015192135835
0.2057769816390506,0.182945486754167,0.4373713380839273,0.8485879550867643,0.3106754741103771,0.2535306745000565,0.7953495131521582,0.7715903106898367,0.69505772005772,0.6056081109744199,0.1708265073399505,0.1819481680071492
0.1981639050604567,0.1748127868588453,0.4376880443388757,0.8572643756379722,0.3052418495631792,0.2478815952999661,0.7906990263043162,0.7671932596103213,0.6898989898989899,0.5997115343825563,0.1664899938967588,0.1762734584450402
0.2004776832363039,0.1794025283839278,0.4416468725257323,0.8535216059884314,0.3054549328787556,0.2525138402440401,0.7913965993314925,0.7674828857293312,0.6878427128427128,0.5983540491239978,0.1663293822877517,0.1763628239499553
0.2107777280191073,0.1885820114340929,0.43784639746635,0.8427186117727118,0.3141913488173876,0.2575980115241215,0.7958726929225403,0.7723275408109531,0.6928571428571428,0.6045899970305011,0.1721435225338087,0.1836014298480786
0.2176444245409762,0.1899508817135035,0.4258115597783057,0.8381252126573666,0.3230343064138078,0.2543215455880691,0.797732887661677,0.7749868351764087,0.6985209235209235,0.6092987740211259,0.1765121582988018,0.1886505808757819
0.2138378862516793,0.18173766003704,0.4178939034045922,0.8446750595440626,0.3230343064138078,0.2457349452039317,0.795146054352565,0.7717219589257504,0.6944444444444444,0.6042082043015314,0.1731714368314542,0.1848972296693476
0.2077922077922077,0.173363394798293,0.4142517814726841,0.8525008506294658,0.3199445983379501,0.238504123827816,0.7910768783607034,0.7668509741969457,0.6871572871572871,0.5966147711364698,0.1674536635508014,0.1774352100089365
0.2103298999850724,0.1785973105725099,0.4191607284243864,0.8483327662470228,0.3200511399957383,0.2439272398599028,0.7908443540183112,0.7665876777251185,0.6856782106782107,0.5962329784075002,0.1671324403327872,0.1767202859696157
0.2211524108075832,0.1927691440534664,0.4240696753760887,0.8346376318475672,0.3261240144896654,0.2556773245960908,0.795087923266967,0.7710110584518167,0.692063492063492,0.6015780766130743,0.1719186662811988,0.1830205540661304
0.2201821167338408,0.1951847974877204,0.4308788598574822,0.8339571282749235,0.323140848071596,0.2597446616201558,0.7983432640604563,0.773407056345445,0.6948051948051948,0.6053111610741102,0.1749381645305322,0.1878016085790884
0.2142110762800418,0.1865689669055479,0.4264449722882027,0.8418679823069072,0.3203707649691029,0.252061913908033,0.79529138206656,0.7704844655081622,0.6902236652236652,0.6002205913545159,0.17262535736083,0.1852993744414655
0.2104791759964173,0.1804493115387712,0.422486144101346,0.8472269479414768,0.3190922650756446,0.2464128347079426,0.7898561255631449,0.7659820958399157,0.6847041847041847,0.5938573792050228,0.1698628376859079,0.1815013404825737
0.2130915061949544,0.1808519204444802,0.4175771971496438,0.8455256890098675,0.322608139782655,0.244944074115919,0.7889550937363755,0.7657714586624539,0.6838744588744589,0.5938998006193527,0.1695737367896951,0.1825737265415549
0.219286460665771,0.1886625332152346,0.4199524940617577,0.8378700238176251,0.3262305561474536,0.2512710428200203,0.7942450225257957,0.7705371248025277,0.6907647907647908,0.601790183684724,0.1738138832674825,0.1872654155495978
0.2179429765636662,0.1892261856832273,0.4239113222486145,0.8382953385505274,0.3239931813339015,0.2530787481640492,0.7962796105217265,0.7716956292785676,0.691991341991342,0.6022992406566835,0.1740066171982911,0.1881143878462913
0.20906105388864,0.1818987035993236,0.4283452098178939,0.8472269479414768,0.3161090986575751,0.2495763190599932,0.7933730562418253,0.7688783570300157,0.6870129870129871,0.5958936070928605,0.1699270823295107,0.1828865058087578
0.2052545155993431,0.1762621789193977,0.4253365003958828,0.8524157876828854,0.3144044321329639,0.2444921477799118,0.7884609795087923,0.7648499210110584,0.6809163059163058,0.5895728163576974,0.1648517554848864,0.176586237712243
0.2057769816390506,0.1791609630405025,0.4299287410926367,0.8505444028581152,0.3132324738972938,0.2482205400519715,0.7896526667635518,0.7648499210110584,0.6815656565656565,0.5900394519153269,0.1649481224502907,0.1771671134941912
0.2168980444842513,0.1889040985586601,0.4254948535233571,0.8390609050697516,0.3227146814404432,0.2534176929160546,0.792559221043453,0.7685887309110058,0.6871212121212121,0.5951724430492513,0.1688349233882625,0.1823056300268096
0.2176444245409762,0.1907560995249215,0.4275534441805226,0.8376998979244641,0.3225015981248668,0.2554513614280871,0.7952623165237611,0.7709320695102686,0.6905122655122655,0.5997115343825563,0.1726896020044328,0.1870866845397676
0.2115987460815047,0.181335051131331,0.421852731591449,0.8461211296359308,0.3200511399957383,0.246751779459948,0.7935765150414184,0.768378093733544,0.6871212121212121,0.5958511856785306,0.1718544216375959,0.1853440571939231
0.2057769816390506,0.1703035671149045,0.4125098970704672,0.8553079278666214,0.3190922650756446,0.2356795842277708,0.7890713559075716,0.7629015271195366,0.6803391053391054,0.5885122809994486,0.1673251742635957,0.1791331546023235
0.2062248096730855,0.1740880908285691,0.4191607284243864,0.8530112283089487,0.317174515235457,0.2407637555078522,0.7891004214503706,0.7633491311216429,0.6804834054834055,0.5889364951427482,0.1682245992740355,0.179982126899017
0.2172712345126138,0.1868910540301151,0.4207442596991291,0.8399965974821368,0.3245258896228425,0.250254208564004,0.7943612846969916,0.7679568193786203,0.6868686868686869,0.5964875068934798,0.1736853939802769,0.1876228775692582
0.2229437229437229,0.1899508817135035,0.4147268408551069,0.8350629465804695,0.3305987641167696,0.2503671901480058,0.7957854962941433,0.7696155871511321,0.6895743145743145,0.5984388919526578,0.1756769779319649,0.1906166219839142
0.216226302433199,0.1827039214107416,0.4148851939825811,0.8427186117727118,0.3258043895163008,0.2452830188679245,0.7918035169306787,0.7663243812532912,0.6858225108225108,0.5933059008187334,0.1710834859143619,0.1847631814119749
0.2089864158829676,0.1792414848216442,0.4231195566112431,0.8487580809799252,0.3178137651821862,0.2457349452039317,0.7885481761371893,0.7637704054765666,0.6817821067821067,0.5882577525134688,0.1659439144261347,0.1781501340482573
0.2121958501268846,0.1815766164747564,0.4210609659540776,0.8456107519564479,0.3207969316002557,0.246751779459948,0.7881121929952042,0.7624275934702475,0.6808441558441558,0.5875365884698597,0.1654620795991134,0.1768990169794459
0.2204060307508583,0.1894677510266527,0.4191607284243864,0.8368492684586595,0.3272959727253356,0.251497005988024,0.7931695974422321,0.7662717219589258,0.6857503607503608,0.5926271581894541,0.1696058591114966,0.1823949955317247
0.2168980444842513,0.1871326193735405,0.4220110847189232,0.8400816604287172,0.3237800980183251,0.2509320980680148,0.7960761517221333,0.7692206424433912,0.6892857142857142,0.5958511856785306,0.1724647457518229,0.1870866845397676
0.2095835199283474,0.1764232224816813,0.4164687252573239,0.8498638992854713,0.3204773066268911,0.241441645011863,0.7927336143002471,0.7664823591363875,0.6858225108225108,0.5914393585882154,0.1702804278693264,0.183958891867739
0.2052545155993431,0.1684515661486432,0.4099762470308789,0.8564988091187479,0.3196249733645855,0.2335329341317365,0.7889260281935765,0.7626908899420748,0.6802669552669551,0.586348788868621,0.1669075840801773,0.1793565683646112
0.2067472757127929,0.1715113938320315,0.4128266033254157,0.8541170466144947,0.3196249733645855,0.2366964184837871,0.7893910768783607,0.7635071090047393,0.6812049062049061,0.5874941670555297,0.1673572965853971,0.1802949061662198
0.2180922525750112,0.1855221837507045,0.4161520190023753,0.8402517863218782,0.3266567227786064,0.2477686137159643,0.7936346461270164,0.7677725118483412,0.6862914862914862,0.5924998939464643,0.1731393145096527,0.1876228775692582
0.2193610986714435,0.1885820114340929,0.4196357878068092,0.8378700238176251,0.32644363946303,0.2510450796520166,0.7961633483505305,0.7689046866771985,0.6879509379509379,0.5941543291053324,0.1747775529215251,0.190437890974084
0.20906105388864,0.1802077461953458,0.4250197941409342,0.848162640353862,0.317174515235457,0.2470907242119535,0.792762679843046,0.7657187993680885,0.6823232323232323,0.5884274381707887,0.1705052841219363,0.1846291331546023
0.2036124794745484,0.1736854819228601,0.4237529691211402,0.854712487240558,0.3137651821862348,0.2421195345158738,0.7894201424211597,0.7617430226434966,0.6786075036075037,0.5826581258219149,0.1665221162185602,0.1797587131367292
0.2088371398716226,0.1757790482325469,0.4167854315122724,0.8506294658046956,0.3198380566801619,0.2411027002598576,0.790204912076733,0.7625065824117957,0.6795454545454545,0.5830399185508846,0.1672930519417943,0.1808310991957104
0.2183908045977011,0.1875352282792495,0.419477434679335,0.8389758421231712,0.3258043895163008,0.2503671901480058,0.7944194157825898,0.7668773038441284,0.6848484848484848,0.5897000806006873,0.1718865439593974,0.1868185880250223
0.2210031347962382,0.1893872292455109,0.4175771971496438,0.8365090166723375,0.3282548476454293,0.2509320980680148,0.7967446592065107,0.7695629278567667,0.6883838383838384,0.5941967505196624,0.1736853939802769,0.1890527256478999
0.212867592177937,0.1777920927610918,0.4121931908155187,0.8472269479414768,0.3242062646494779,0.240876737091854,0.795087923266967,0.7663243812532912,0.6839105339105338,0.5885547024137785,0.1695416144678937,0.1824843610366398
0.2024182713837886,0.166921652306949,0.41298495645289,0.8589656345695815,0.3165352652887278,0.2335329341317365,0.7915128615026886,0.7630858346498157,0.6785353535353534,0.5820642260212956,0.1635668626128296,0.1737265415549597
0.2043588595312733,0.1710282631451807,0.4169437846397467,0.8557332425995237,0.316641806946516,0.2378262343238052,0.7906990263043162,0.763059505002633,0.6783910533910533,0.5818945403639758,0.1638880858308438,0.1745755138516532
0.2164502164502164,0.1861663579998389,0.4210609659540776,0.8407621640013611,0.3238866396761133,0.2499152638119986,0.7946228745821828,0.7663770405476567,0.683982683982684,0.5893182878717177,0.169637981433298,0.1836461126005361
0.2177937005523212,0.1885820114340929,0.4229612034837688,0.8387206532834298,0.3242062646494779,0.2522878770760366,0.7970062490917018,0.7696682464454977,0.687987012987013,0.5938573792050228,0.1735569046930712,0.1890974084003574
0.2077922077922077,0.1753764393268379,0.4183689627870151,0.8513950323239198,0.3185595567867036,0.2413286634278612,0.7929952041854381,0.7655871511321748,0.6829365079365078,0.5864760531116108,0.1699270823295107,0.1851206434316354
0.2037617554858934,0.1696593928657702,0.4155186064924783,0.8567539979584893,0.316641806946516,0.2363574737317817,0.7889260281935765,0.7615323854660347,0.6771645021645021,0.5811733763203666,0.1653657126337091,0.1780160857908847
0.2071204657411553,0.1752153957645543,0.4193190815518607,0.8519054100034026,0.317707223524398,0.2415546265958648,0.7891004214503706,0.7625065824117957,0.6788600288600288,0.5836338183515039,0.166811217114773,0.1794012511170688
0.2153306463651291,0.1856027055318463,0.4223277909738718,0.8416978564137463,0.322608139782655,0.2499152638119986,0.7931695974422321,0.7671406003159558,0.6860028860028861,0.5902939804013067,0.1729787029006456,0.1880250223413762
0.2200328407224959,0.1880988807472421,0.4172604908946952,0.8377849608710446,0.3277221393564883,0.2499152638119986,0.7952623165237611,0.7691153238546604,0.688059163059163,0.591821151317185,0.1754521216793549,0.1910187667560321
0.2068219137184654,0.1768258313873903,0.4229612034837688,0.8512249064307589,0.3163221819731515,0.2440402214439046,0.7938381049266096,0.765376513954713,0.6829365079365078,0.5873244813982099,0.1718544216375959,0.1864164432529043
0.2007762352589938,0.1700620017714792,0.4226444972288203,0.8582000680503574,0.3121670573194118,0.2391820133318268,0.7906408952187182,0.7615323854660347,0.6776334776334777,0.5828278114792348,0.1673894189071986,0.1796246648793565
0.2072697417525003,0.1739270472662855,0.4163103721298496,0.8525008506294658,0.3188791817600682,0.2396339396678341,0.7916872547594827,0.7630858346498157,0.6793650793650794,0.5840156110804735,0.168031865343227,0.1803842716711349
0.2133154202119719,0.1814155729124728,0.4185273159144894,0.8451003742769649,0.3225015981248668,0.24562196361993,0.7966574625781137,0.7682464454976303,0.6862914862914862,0.5908454587875961,0.1724647457518229,0.185254691689008
0.2148828183310941,0.1868105322489733,0.4256532066508314,0.8413576046274244,0.3211165565736203,0.252061913908033,0.8003197209707891,0.7708794102159031,0.6905483405483405,0.5944512790056421,0.1745205743471138,0.1882484361036639
0.2117480220928496,0.1847169659392865,0.4283452098178939,0.8442497448111603,0.3180268484977626,0.251497005988024,0.7979363464612702,0.7689046866771985,0.6873015873015872,0.5914817800025454,0.1714368314541775,0.1836907953529937
0.2057769816390506,0.1838312263467268,0.4392715756136184,0.8480775774072814,0.3101427658214362,0.2547734719240763,0.7967155936637117,0.766640337019484,0.6853535353535354,0.5895728163576974,0.1691882689280781,0.1796246648793565
0.20906105388864,0.1930912311780336,0.4505146476642914,0.8413576046274244,0.3086511826124015,0.2652807592362445,0.8002906554279902,0.7692733017377568,0.6884559884559884,0.5933907436473932,0.1705695287655391,0.1823949955317247
0.2183908045977011,0.2112891537160801,0.4661916072842439,0.8263865260292617,0.310036224163648,0.2836967574285391,0.8087777939253015,0.7759610321221696,0.6962481962481962,0.601790183684724,0.1751951431049436,0.1888293118856121
0.2217495148529631,0.2212738545776633,0.4788598574821853,0.8192412385165023,0.3082250159812486,0.2951078974127217,0.81235285568958,0.779304897314376,0.7013347763347763,0.6086200313918466,0.1787928431467026,0.1936997319034852
0.2145842663084042,0.209356630968677,0.4706254948535234,0.8296189179993195,0.3058810995099083,0.283809739012541,0.809940415637262,0.7761979989468141,0.6971139971139971,0.6027234547999831,0.1752915100703479,0.1886058981233244
0.2074936557695178,0.2013849746356389,0.4699920823436263,0.8378700238176251,0.3009801832516514,0.2780476782284488,0.8078476965557332,0.7733017377567141,0.6931457431457432,0.5983540491239978,0.1738781279110854,0.1848972296693476
0.2197342886998059,0.2204686367662452,0.4815518606492479,0.8207723715549506,0.3058810995099083,0.2955598237487289,0.8089231216392966,0.7760663507109005,0.6967171717171717,0.6038264115725619,0.1775079502746458,0.1903485254691689
0.2360053739364084,0.2485707383847331,0.502296120348377,0.7966995576726777,0.3104623907948007,0.3226754039091628,0.8099694811800611,0.7801474460242233,0.7041847041847041,0.6145590293980402,0.1849603289325752,0.2004021447721179
0.238692342140618,0.2620983976165553,0.5231987331749803,0.7880231371214699,0.3053483912209674,0.3396226415094339,0.8054933875890132,0.7799368088467614,0.7076118326118326,0.6206252916472236,0.1909672031094407,0.2060768543342269
0.2364532019704433,0.2621789193976971,0.5281076801266826,0.7892990813201769,0.3020455998295333,0.3414303468534629,0.7934311873274233,0.7716429699842022,0.6999278499278498,0.6151529291986596,0.1887828852269442,0.2012511170688114
0.2357068219137184,0.2644335292696674,0.5342834520981791,0.7885335148009528,0.2994886000426167,0.3451587391255225,0.7808458072954513,0.7649815692469721,0.6926406926406926,0.6102320451363848,0.1860203655520221,0.1976318141197497
0.2434691745036572,0.2764312746597955,0.5412509897070468,0.7777305205852332,0.3026848497762625,0.3561179527736978,0.7763406481616044,0.7634807793575565,0.6915945165945165,0.6098502524074153,0.1871125244932704,0.201295799821269
0.2539931333034781,0.2781222320637732,0.5220902612826605,0.7708404219122151,0.316641806946516,0.3504688735736075,0.7742188635372765,0.7639810426540284,0.691991341991342,0.6116743732236033,0.1901641450644052,0.2101429848078642
0.2546648753545305,0.2674933569530558,0.4999208234362629,0.7760292616536236,0.3246324312806307,0.3351033781493616,0.7683766894346752,0.7589784096893101,0.6844155844155844,0.6041657828872016,0.1885901512961356,0.2121983914209115
0.2387669801462905,0.2521136967549722,0.5034045922406969,0.7932970398094591,0.3120605156616237,0.3256129250932097,0.7599476820229618,0.7510005265929437,0.6735930735930736,0.5910999872735757,0.1817159744306318,0.2047363717605004
0.2375727720555306,0.2563008293743458,0.5140142517814726,0.79168084382443,0.3075857660345195,0.3322788385493164,0.7508501671268711,0.743812532912059,0.66497113997114,0.5813006405633565,0.1771546047348302,0.1999553172475424
0.2536945812807882,0.2718415331347129,0.5105304829770388,0.7743280027220143,0.3202642233113147,0.3419952547734719,0.7512570847260572,0.7451026856240126,0.6668831168831169,0.5840580324948034,0.1806238154893835,0.2059428060768543
0.2711598746081504,0.2906836299218939,0.5105304829770388,0.7544232732221845,0.3328361389303217,0.3551011185176815,0.7593954367097805,0.7532122169562928,0.6761183261183261,0.593645272133373,0.1892647200539655,0.2173369079535299
0.2758620689655172,0.2789274498751912,0.4774346793349169,0.757995916978564,0.3473258043895162,0.3351033781493616,0.7639877924720244,0.756187467087941,0.6804834054834055,0.5975480422517288,0.1920914843724904,0.218722073279714
0.2704134945514255,0.2488123037281584,0.4297703879651623,0.7769649540660089,0.3594715533773706,0.2970285843407524,0.7640459235576225,0.7535545023696683,0.6757936507936507,0.5914393585882154,0.1865343227008448,0.2100983020554065
0.2663084042394387,0.237780819711732,0.4169437846397467,0.785130996937734,0.3608565949286171,0.2846006101005536,0.765412004069176,0.75405476566614,0.6746392496392496,0.5904636660586264,0.183643313738717,0.20437890974084
0.2679504403642334,0.2443836057653595,0.4262866191607284,0.7807077237155496,0.3588323034306414,0.2926223025646819,0.7709925882865862,0.7578988941548183,0.6801226551226551,0.5951300216349213,0.18823680575632,0.2109919571045576
0.2739214808180325,0.252999436347532,0.4305621536025337,0.7727968696835659,0.3617089281909226,0.300192068692803,0.7782299084435401,0.7649025803054239,0.6893217893217893,0.6054384253171001,0.196267386206675,0.2206434316353887
0.2754142409314823,0.2359288187454707,0.3938242280285037,0.7808778496087105,0.3751331770722352,0.2751101570444018,0.7818340357506177,0.7695892575039494,0.6931096681096681,0.6080685530055573,0.1975844014005332,0.2206434316353887
0.2599641737572772,0.2054110636927289,0.3665874901029296,0.8058012929567882,0.3732154272320477,0.2440402214439046,0.7834326406045633,0.7693786203264876,0.6902958152958152,0.6004751198404955,0.1885901512961356,0.2075067024128686
0.2366771159874608,0.1820597471616072,0.3700712589073634,0.8314052398775094,0.3554229703814191,0.2289006891876623,0.782967591919779,0.7664823591363875,0.6846320346320347,0.5922877868748144,0.1785679868940927,0.192225201072386
0.2227944469323779,0.1790804412593606,0.3936658749010294,0.840932289894522,0.3376305135307905,0.2352276578917636,0.7874146199680279,0.7659820958399157,0.6832251082251082,0.5910151444449159,0.1742957180945039,0.1851653261840929
0.2195103746827884,0.183348095659876,0.4090261282660333,0.8405069751616198,0.3300660558278286,0.2435882951078973,0.7930533352710362,0.7704318062137967,0.6876262626262627,0.594536121834302,0.1744563297035109,0.1859696157283288
