Lead I,Lead II,Lead III,aVR,aVL,aVF,V1,V2,V3,V4,V5,V6
0.1715181370353783,0.2116112408406474,0.5664291369754554,0.8529261653623682,0.242914979757085,0.3196249011411139,0.8118006103763988,0.7877567140600317,0.6963924963924965,0.5804946336910873,0.1319584979602326,0.1528596961572833
0.1609941782355575,0.1976004509219743,0.5612034837688046,0.8663661109220824,0.2370551885787342,0.307874816404926,0.8174974567650051,0.7920747761979989,0.7017316017316018,0.5831671827938744,0.1243776300150975,0.1389633601429848
0.1650246305418719,0.2028343666961913,0.5629453681710215,0.8612623341272543,0.2393991050500745,0.3122810981809965,0.824763842464758,0.8004476040021063,0.7142857142857143,0.5938149577906928,0.1252128103819344,0.1371313672922252
0.1730108971488281,0.2084708913761172,0.5572446555819479,0.853776794828173,0.2470701044108246,0.3142017851090272,0.8329312599912804,0.8097156398104265,0.7269480519480519,0.6062444321893693,0.1289389997108991,0.1407953529937444
0.170398566950291,0.2019486271036315,0.5498020585906572,0.8587104457298401,0.2476028126997656,0.3069709637329115,0.837000435983142,0.8140073723012111,0.7336580086580087,0.6113774233232937,0.1298384247213388,0.1401697944593387
0.1600985221674877,0.1860858362186971,0.5406175771971498,0.8729159578087786,0.243447688046026,0.2925093209806801,0.8358668798139806,0.8136650868878357,0.7335497835497835,0.6090442455351462,0.1265298255757926,0.1337801608579088
0.1520376175548589,0.1746517432965617,0.5350752177355503,0.8835488261313373,0.2395056467078627,0.2825669415885211,0.8352274378724023,0.8135334386519221,0.7348845598845598,0.6085776099775168,0.1236066942918634,0.1303395889186774
0.1552470517987759,0.1806908768821966,0.5403008709422011,0.87861517522967,0.2400383549968037,0.2885549655406168,0.8399651213486412,0.8181674565560821,0.7408369408369407,0.6146014508123702,0.1261122353923741,0.1325290437890974
0.1657710105985968,0.1893872292455109,0.5347585114806017,0.8679823069071113,0.2494140208821648,0.2927352841486837,0.8455747711088505,0.8239336492890995,0.7493867243867244,0.6233402621643406,0.1305129934791686,0.1383378016085791
0.1656217345872518,0.1879378371849585,0.5323832145684878,0.8688329363729161,0.2500532708288941,0.2909275788046548,0.8486557186455457,0.8260926803580833,0.7530663780663781,0.626606711067747,0.1317015193858212,0.1393208221626452
0.1559187938498283,0.1753764393268379,0.5282660332541569,0.8809969377339232,0.2445131046239079,0.2806462546604903,0.8460398197936346,0.823880989994734,0.7523809523809524,0.6238493191363,0.127557739873438,0.1335120643431635
0.1574861919689505,0.1741686126097109,0.5227236737925575,0.8807417488941818,0.2476028126997656,0.2777087334764433,0.8436273797413166,0.8225908372827804,0.7502886002886002,0.6205828702328936,0.1234782050046577,0.1277926720285969
0.1617405582922824,0.1848780095015702,0.5346001583531276,0.8726607689690372,0.2466439377796718,0.2895717997966331,0.8472315070483941,0.8261453396524487,0.7560245310245309,0.6269036609680567,0.1261443577141756,0.1306076854334227
0.1679355127630989,0.1951042757065786,0.5415676959619954,0.8637291595780878,0.2486682292776475,0.2991752344367868,0.8530446156081966,0.8319641916798315,0.7643578643578643,0.6368726933355958,0.13054511580097,0.1367292225201072
0.1648007165248544,0.1939769707705934,0.5460015835312749,0.866110922082341,0.2449392712550607,0.2999661055247994,0.8536840575497747,0.8332280147446024,0.7667027417027417,0.6397573495100327,0.1292923452507147,0.1347184986595174
0.1566651739065532,0.1850390530638537,0.5456848772763263,0.8754678462061926,0.2391860217344981,0.2936391368206982,0.8502543234994914,0.8307266982622433,0.7644300144300145,0.6343274084757986,0.1230284924994378,0.1264075067024128
0.1497984773846843,0.1827039214107416,0.5556611243072052,0.8805716230010209,0.2309823140848071,0.2954468421647271,0.8499927336143003,0.830463401790416,0.7643939393939393,0.632206337759301,0.1187241013780476,0.1218945487042001
0.1550977757874309,0.1911587084306305,0.5610451306413302,0.8731711466485199,0.2329000639249946,0.3033555530448536,0.8533643365789856,0.8346234860452869,0.770093795093795,0.6372969074788954,0.1211653978349555,0.1257372654155496
0.1615912822809374,0.1987277558579595,0.5621536025336501,0.8654304185096972,0.2372682718943106,0.309004632244944,0.8594390350239791,0.8409689310163243,0.7802308802308803,0.6473932040894244,0.1260158684269698,0.1320822162645219
0.1572622779519331,0.1947016668008696,0.5634204275534443,0.8700238176250427,0.233645855529512,0.3066320189809061,0.8628106379886644,0.8441811479726172,0.785064935064935,0.6507869172358207,0.1254697889563457,0.1309651474530831
0.1442752649649201,0.1785167887913681,0.5591448931116391,0.8860156515821709,0.2258683145109737,0.2937521184047,0.8617642784479,0.8421011058451816,0.7826118326118326,0.6461205616595258,0.1202980951463171,0.1223860589812332
0.1388266905508284,0.1722360898623078,0.5583531274742678,0.8923953725757061,0.2222458981461751,0.2891198734606259,0.8611539020491208,0.8420484465508162,0.783080808080808,0.6451024477156069,0.1161221933121326,0.1159964253798034
0.1444991789819376,0.1827844431918834,0.5672209026128266,0.8835488261313373,0.223311314724057,0.2997401423567958,0.8656299956401686,0.8484202211690364,0.7905844155844155,0.653289780681288,0.1177925540458064,0.118722073279714
0.1465144051350947,0.1923665351477574,0.5814726840855108,0.877339231030963,0.220008523332623,0.3114902270929838,0.8718790873419562,0.8554765666140074,0.8002525252525252,0.6620285920332585,0.12013748353731,0.1219392314566577
0.1448723690103,0.1903534906192125,0.5811559778305623,0.8793807417488942,0.2188365650969528,0.3100214665009603,0.8752216247638425,0.8589257503949447,0.8056277056277056,0.6655071480083147,0.1184028781600334,0.1201072386058981
0.1334527541424093,0.1789999194782189,0.5830562153602534,0.8918849948962232,0.2101001491583208,0.3026776635408428,0.8741171341374799,0.8583201685097419,0.8036435786435786,0.6617316421329488,0.1105329093186855,0.1116621983914209
0.1271085236602477,0.1752959175456961,0.5892319873317499,0.8974991493705342,0.2034945663754527,0.3022257372048356,0.8739427408806859,0.8600315955766192,0.8058802308802309,0.6619013277902686,0.1057788056920754,0.1059428060768543
0.1330049261083744,0.184153313471294,0.5942992874109264,0.8894181694453897,0.2060515661623694,0.3102474296689639,0.8801046359540764,0.8672985781990521,0.8159812409812409,0.6705977177279091,0.1073206771385435,0.1072832886505808
0.1392745185848634,0.1938964489894517,0.6,0.8807417488941818,0.2085020242914979,0.3191729748051067,0.8874000871966284,0.8761716692996314,0.8272005772005772,0.6809061214100879,0.1105329093186855,0.1097408400357461
0.1355426183012389,0.1927691440534664,0.6057007125890738,0.8834637631847567,0.2039207330066055,0.3204157722291266,0.8904810347333236,0.880963665086888,0.834992784992785,0.6862087982013321,0.1090552825158202,0.1086684539767649
0.1255411255411255,0.1843948788147194,0.6102929532858274,0.8935011908812521,0.1952908587257617,0.3161224720370579,0.8906263624473187,0.8821484992101105,0.8372294372294372,0.685360369914733,0.1026308181555362,0.1019213583556747
0.1181519629795491,0.1843143570335776,0.62596991290578,0.8978394011568561,0.1847432346047304,0.3216585696531465,0.8944920796395872,0.8859662980516061,0.8415584415584416,0.6856573198150427,0.0967845555876778,0.0955317247542448
0.1237498134049858,0.1934133183026008,0.631987331749802,0.889843484178292,0.1866609844449179,0.3302451700372839,0.9020200552245312,0.8941811479726172,0.8525613275613275,0.6930810673227845,0.0967524332658764,0.0961572832886505
0.1299447678758023,0.2023512360093405,0.6362628661916073,0.8815073154134061,0.1897506925207756,0.3380408993334086,0.910768783607034,0.90434439178515,0.8660894660894661,0.7038136851482628,0.0978767145289261,0.0969168900804289
0.1242722794446932,0.1948627103631532,0.6335708630245448,0.8887376658727458,0.1865544427871297,0.3318269122133092,0.9156517947972678,0.9112954186413904,0.8748917748917748,0.7087345692105376,0.09411840287816,0.0929401251117068
0.1080758322137632,0.1823013125050326,0.6432304038004752,0.9045593739367132,0.1717451523545706,0.3264037961812224,0.9181223659351838,0.914902580305424,0.8785353535353535,0.7086921477962076,0.0870514920818476,0.0831546023235031
0.1041946559187938,0.1779531363233755,0.6429136975455266,0.9091527730520584,0.1690816109098657,0.3232403118291718,0.9187908734195612,0.9148499210110584,0.8767676767676766,0.7061468629364105,0.0823616330988404,0.077390527256479
0.1120316465144051,0.1871326193735405,0.6444972288202693,0.899795848928207,0.1740890688259109,0.3303581516212857,0.92146490335707,0.9176671932596104,0.8805555555555555,0.7106435328553855,0.0852526420609681,0.0815907059874888
0.1194208090759814,0.1955068846122876,0.6452889944576407,0.8912044913235795,0.179096526741956,0.3364591571573834,0.9252143583781428,0.921484992101106,0.885894660894661,0.716497688032919,0.0897818894349683,0.0872654155495978
0.1129273025824749,0.1932522747403172,0.6546318289786225,0.8960530792786663,0.171425527381206,0.3381538809174104,0.9260863246621132,0.9236176935229068,0.8892496392496392,0.7189157086497265,0.0892679322861456,0.0867292225201072
0.099492461561427,0.1856027055318463,0.6680918448139352,0.9077067029601906,0.157255486895376,0.3377019545814032,0.925970062490917,0.926698262243286,0.8936868686868686,0.7188732872353965,0.0830040795348687,0.0796246648793565
0.0918793849828332,0.1824623560673162,0.678068091844814,0.913746172167404,0.148519070956744,0.3390577335894249,0.9304461560819648,0.9324644549763034,0.901190476190476,0.7216731005811734,0.0775754071504288,0.073100983020554
0.0947902672040603,0.1915613173363395,0.6897862232779098,0.9072813882272884,0.1466013211165565,0.349565020901593,0.938468245894492,0.9425223802001051,0.914285714285714,0.7308361260764435,0.0764511258873791,0.072207327971403
0.0959098372891476,0.2021096706659151,0.7081551860649249,0.901071793126914,0.1411676965693586,0.3635747373178172,0.94794361284697,0.9529752501316482,0.929076479076479,0.7427565435031606,0.0757444348077479,0.0716711349419124
0.0865800865800865,0.2008213221676463,0.7254156769596201,0.9071112623341272,0.1287023226081397,0.3687718901819003,0.9550937363755267,0.9609004739336492,0.9379870129870128,0.7477198489797651,0.0704121293887122,0.0647453083109919
0.0685176892073443,0.1890651421209437,0.7404592240696756,0.9236134739707385,0.110803324099723,0.3659473505818552,0.9572155209998546,0.9640073723012113,0.9417748917748916,0.7461078352352268,0.0598117631942436,0.0519660411081322
0.0562770562770562,0.1855221837507045,0.7596199524940618,0.9323749574685268,0.095567867036011,0.3702406507739238,0.9609649760209272,0.968378093733544,0.948015873015873,0.7459381495779069,0.0501750666538177,0.0420017873100983
0.057620540379161,0.1972783637974072,0.7797307996832938,0.9254848587955088,0.0898146175154485,0.3857191277821715,0.9691905246330476,0.9772511848341232,0.9602092352092352,0.7528104186993595,0.0467058558992643,0.0396782841823056
0.0568741603224361,0.2065383686287141,0.7996832937450515,0.920976522626744,0.0825697847858512,0.3992769178623883,0.9774451387879668,0.9868351764086362,0.972005772005772,0.7606583803504009,0.0439754585461437,0.0398570151921358
0.0488878937154799,0.2038811498510347,0.8114014251781474,0.9269309288873768,0.0728744939271255,0.4016495311264263,0.9807004795814562,0.990231700895208,0.9769119769119768,0.7612098587366903,0.0373261379332498,0.0323056300268096
0.0271682340647857,0.1933327965214591,0.8368962787015044,0.9448792106158558,0.0487960792669934,0.4033442548864535,0.9811945938090392,0.9888362295945234,0.9747474747474748,0.7547618037585374,0.0248305547524975,0.0184986595174262
0.0217196596506941,0.1931717529591754,0.8479809976247032,0.9480265396393333,0.0412316215640315,0.4071856287425149,0.9822118878070047,0.9901263823064772,0.9748196248196248,0.7516650405124508,0.0155150814300857,0.0103217158176943
0.0323182564561874,0.2124969804332071,0.8634996041171814,0.9317795168424636,0.0435755380353717,0.4262795164388204,0.9866589158552536,0.995155344918378,0.981962481962482,0.7570949815466848,0.0145192894542417,0.0101876675603217
0.0376921928646066,0.2255415089781785,0.8777513855898655,0.9218271520925484,0.042616663115278,0.4405151960230482,0.9912512716174974,0.99942074776198,0.9886363636363636,0.7620582870232895,0.0138125983746105,0.0107238605898123
0.0291088222122704,0.2231258555439246,0.8912114014251783,0.9280367471929228,0.0319624973364585,0.443565698791097,0.9911640749891004,0.9986571879936808,0.9886363636363636,0.7594281593348324,0.0105361215508657,0.0076407506702412
0.0172413793103448,0.2137048071503342,0.8980205859065717,0.9397754338210276,0.0212017898998507,0.4393853801830301,0.9862229327132684,0.9931806213796734,0.9836940836940836,0.7521316760700802,0.0049147152356172,0.0018766756032171
0.0148529631288251,0.2143489813994686,0.9041963578780682,0.9407961891799932,0.0173662902194758,0.4420969381990735,0.9824444121493968,0.9893101632438124,0.9794372294372294,0.7476774275654351,0.001156403584851,0.0001787310098302
0.0245559038662486,0.2281987277558579,0.9108471892319876,0.9279516842463424,0.0221606648199445,0.4540729861032651,0.9810202005522451,0.988020010531859,0.979004329004329,0.7503923980825522,0.0050432045228229,0.0057640750670241
0.0329899985072398,0.2406796038328368,0.9174980205859068,0.9165532494045594,0.0258896228425314,0.4652581629194441,0.9807586106670542,0.9857819905213272,0.9785353535353536,0.7540830611292582,0.0123028492499437,0.014834673815907
0.0341095685923272,0.2389081246477172,0.9116389548693588,0.9168084382443008,0.0286597059450245,0.4618687153993899,0.972707455311728,0.9768562401263824,0.9693362193362194,0.7476774275654351,0.0136841090874048,0.0167560321715817
0.0282878041498731,0.2296481198164103,0.9057798891528108,0.9250595440626064,0.0265288727892606,0.4532821150152524,0.9608777793925302,0.9633228014744604,0.952236652236652,0.7351206889237688,0.0128168063987665,0.0168007149240393
0.0326168084788774,0.2320637732506643,0.9013460015835314,0.9213167744130658,0.0311101640741529,0.4533950965992542,0.9498619386717048,0.9508162190626646,0.9375901875901876,0.7282908412166462,0.0169284635893482,0.0220732797140303
0.0491864457381698,0.2466382156373298,0.8948535233570863,0.9041340592038108,0.0450671212444065,0.4614167890633826,0.9423630286295596,0.9416535018430752,0.9281746031746032,0.7262121919144785,0.0271433619221997,0.0349419124218051
0.0697865353037766,0.2600048313068685,0.8774346793349169,0.8853351480095272,0.0656296611975282,0.4644672918314314,0.9340793489318412,0.931832543443918,0.9168470418470418,0.7254910278708693,0.0400886576081719,0.0487488829311885
0.080534408120615,0.2591996134954505,0.853206650831354,0.8797209935352162,0.0813978265501811,0.4553157835272851,0.9216102310710652,0.9166929963138494,0.898088023088023,0.7169219021762185,0.0493077639651794,0.0584003574620196
0.0867293625914315,0.2534825670343827,0.8286619160728425,0.8791255529091528,0.0941828254847645,0.4425488645350807,0.9044034297340504,0.8969194312796208,0.8728354978354979,0.7023289356467145,0.0555716167164562,0.0644772117962466
0.0995670995670995,0.2569450036234801,0.808234362628662,0.8700238176250427,0.1101640741529938,0.437690656423003,0.8896962650777503,0.8803580832016851,0.8522366522366521,0.6931659101514446,0.0671677748867688,0.0770777479892761
0.1216599492461561,0.2705531846364442,0.78812351543943,0.8502041510717933,0.1327509056040912,0.4400632696870409,0.8779537857869495,0.8681937862032648,0.8365800865800865,0.6877783905315403,0.0823937554206418,0.0946380697050938
0.1409165547096581,0.2796521459054675,0.765003958828187,0.8344675059544062,0.1541657788195184,0.4382555643430121,0.8682168289492807,0.8568720379146919,0.8226911976911976,0.684427098799474,0.0962384761170537,0.1109472743521
0.1496492013733392,0.2764312746597955,0.7403008709422012,0.8312351139843485,0.1687619859365011,0.4271833691108349,0.8576369713704404,0.8427330173775671,0.8029220779220778,0.6735247953166759,0.1057788056920754,0.1198391420911528
0.1534557396626362,0.2658829213302198,0.7114806017418845,0.8346376318475672,0.18122735989772,0.4094452604225511,0.8447318703676792,0.8276724591890469,0.7819264069264069,0.6594408857591313,0.1115287012945295,0.12390527256479
0.164576802507837,0.2609710926805701,0.6782264449722883,0.8308097992514462,0.2002983166418069,0.394192746582307,0.8339776195320447,0.8147709320695102,0.7641414141414141,0.6473083612607645,0.1182422665510263,0.1312779267202859
0.1866696521868935,0.2663660520170706,0.641963578780681,0.8154134059203813,0.2283187726401022,0.3849282566941588,0.8276994622874583,0.8074776197998947,0.7540764790764791,0.6442115980146779,0.1310911952715942,0.1486595174262734
0.1993581131512165,0.2693453579193172,0.6209026128266034,0.8066519224225928,0.2444065629661197,0.379505140662072,0.824502252579567,0.8038967877830437,0.7482323232323231,0.6443812836719977,0.1451928945424175,0.1662645218945487
0.2028660994178235,0.2629036154279732,0.6007917656373715,0.8080129295678803,0.2536756871936927,0.3678680375098858,0.8175846533934021,0.7937862032648761,0.7336580086580087,0.6342849870614687,0.1494972856638078,0.1715370866845397
0.2036871174802209,0.2574281343103309,0.5882818685669043,0.8104797550187139,0.2584700617941615,0.359507400293752,0.8090393838104927,0.7828857293312269,0.7178210678210677,0.6195223348746448,0.1486942276187722,0.1685433422698838
0.2068965517241379,0.2575891778726145,0.5817893903404593,0.8085233072473631,0.2629448114212657,0.3573607501977177,0.8028774887371022,0.7771195365982095,0.709090909090909,0.6133288083824715,0.1522598053387298,0.1702859696157283
0.2206299447678757,0.2669297044850632,0.5708630245447349,0.7957638652602927,0.2764756019603665,0.3599593266297593,0.8013370149687545,0.7753291205897841,0.7058802308802309,0.6125652229245324,0.1590376152388294,0.179579982126899
0.2348858038513211,0.2762702310975118,0.5591448931116391,0.7827492344334809,0.2905391007884083,0.3623319398937972,0.8013951460543526,0.7755660874144287,0.7051587301587302,0.6146014508123702,0.1679676206996241,0.1907059874888293
0.2325720256754739,0.2666881391416378,0.5452098178939034,0.7890438924804355,0.2936288088642659,0.350694836741611,0.7989827060020346,0.7717482885729331,0.6989898989898989,0.6099350952360751,0.1708265073399505,0.1939678284182305
0.222346618898343,0.2488123037281584,0.5319081551860649,0.80435522286492,0.2907521841039846,0.3334086543893345,0.7930824008138352,0.7657977883096366,0.6905483405483405,0.6014083909557545,0.1675179081944043,0.1899910634495085
0.2249589490968801,0.2451083017956357,0.5187648456057008,0.8048656005444029,0.2970381419134881,0.326064851429217,0.792413893329458,0.7640073723012112,0.6885281385281384,0.5970389852797693,0.1662330153223475,0.1869973190348525
0.231974921630094,0.254207263064659,0.5219319081551862,0.796019054100034,0.3009801832516514,0.3336346175573381,0.7956401685801483,0.7660084254870985,0.6905844155844155,0.5996691129682264,0.1693488805370852,0.1905719392314566
0.2402597402597402,0.2632257025525404,0.5220902612826605,0.7864920040830216,0.3068399744300021,0.3400745678454412,0.7984595262316524,0.7683517640863612,0.6933621933621934,0.6041657828872016,0.1718544216375959,0.1938784629133154
0.2402597402597402,0.2583138739028907,0.5124307205067301,0.7891289554270161,0.3101427658214362,0.333069709637329,0.7981979363464612,0.7673249078462349,0.6910894660894661,0.600941755398125,0.1701198162603193,0.1914655942806077
0.2307807135393342,0.2484096948224494,0.5130641330166271,0.7997618237495748,0.3031110164074153,0.3264037961812224,0.7931986629850313,0.7644286466561349,0.6868686868686869,0.5956815000212108,0.1662651376441489,0.1854334226988382
0.2292133154202119,0.2447862146710685,0.5092636579572447,0.8025689009867302,0.3033240997229916,0.3225624223251609,0.7922104345298648,0.7633491311216429,0.6858946608946609,0.5939846434480126,0.1647232661976807,0.1833333333333333
0.2336169577548887,0.2521136967549722,0.5143309580364213,0.796189179993195,0.3047091412742382,0.3294542989492712,0.7962796105217265,0.7673775671406003,0.6912337662337662,0.599160055996267,0.1685458224920497,0.1890080428954423
0.2410807583221376,0.255415089781786,0.5049881235154394,0.7901497107859817,0.3132324738972938,0.3284374646932549,0.7991280337160296,0.7707477619799895,0.6956349206349206,0.6053960039027702,0.1714047091323761,0.1940571939231456
0.2378713240782206,0.2503422175698526,0.5019794140934284,0.7947431099013271,0.3118474323460473,0.3238052197491809,0.7987792472024415,0.769641916798315,0.6944083694083694,0.6035718830865822,0.169637981433298,0.1916890080428954
0.2279444693237796,0.2405185602705532,0.5034045922406969,0.8055461041170466,0.3043895163008736,0.3173652694610778,0.79529138206656,0.7655344918378094,0.6887806637806637,0.597293513765749,0.1647232661976807,0.1848078641644325
0.2280191073294521,0.2408406473951203,0.5038796516231195,0.8052909152773052,0.3042829746430854,0.317817195797085,0.7942159569829966,0.7640863612427594,0.6870851370851371,0.5952997072922411,0.1631813947512126,0.1823949955317247
0.2354082698910284,0.2513084789435542,0.5089469517022961,0.7955937393671317,0.3077988493500959,0.3269687041012314,0.7979944775468681,0.7687203791469194,0.6921356421356422,0.600941755398125,0.1665863608621631,0.1873100983020554
0.2397372742200328,0.2587164828085997,0.5144893111638955,0.7892140183735965,0.308970807585766,0.3341995254773472,0.8002615898851911,0.7728014744602422,0.6975829725829725,0.6063716964323591,0.1682888439176383,0.1911081322609472
0.2339155097775787,0.2545293501892262,0.5184481393507522,0.7947431099013271,0.3035371830385681,0.3326177833013219,0.7986920505740445,0.7713270142180094,0.6956349206349206,0.6048445255164808,0.1646590215540779,0.1866845397676497
0.2229437229437229,0.2459940413881955,0.5250989707046715,0.8055461041170466,0.2934157255486895,0.329002372613264,0.7960180206365354,0.7679304897314375,0.6907647907647908,0.5985661561956476,0.1574957437923613,0.1775692582663092
0.2213763248246006,0.2460745631693373,0.5282660332541569,0.8063116706362708,0.2912848923929256,0.330132188453282,0.7961342828077315,0.7667456556082148,0.6892135642135642,0.5963178212361601,0.1554399151970704,0.1742627345844503
0.2336915957605612,0.2577502214348981,0.5252573238321459,0.7932119768628786,0.3010867249094395,0.3372500282453959,0.7986048539456474,0.7697998946814113,0.6936147186147186,0.6019598693420439,0.1595515723876522,0.1802949061662198
0.2357068219137184,0.2574281343103309,0.5203483768804434,0.792191221503913,0.3041764329852972,0.3353293413173652,0.8022671123383229,0.774855186940495,0.7001803751803751,0.6092987740211259,0.1634062510038225,0.1858802502234137
0.228466935363487,0.2449472582333521,0.5111638954869359,0.8029091527730521,0.3020455998295333,0.3232403118291718,0.8009300973695683,0.7733017377567141,0.6992063492063492,0.6076019174479278,0.1612861777649288,0.1829758713136729
0.219137184654426,0.2303728158466865,0.502296120348377,0.815923783599864,0.2984231834647347,0.3099084849169585,0.7964830693213195,0.7689836756187467,0.6926406926406926,0.599966062868536,0.1560502393112974,0.175692582663092
0.2154799223764741,0.2320637732506643,0.5133808392715756,0.8171146648519906,0.2921372256552311,0.3149926561970399,0.7954657753233542,0.767693522906793,0.6895382395382395,0.598269206295338,0.1541550223250136,0.1730563002680965
0.2259292431706225,0.2447862146710685,0.5162311955661124,0.8044402858115006,0.2986362667803111,0.3249350355891989,0.7964249382357216,0.7691679831490258,0.6923520923520924,0.6022992406566835,0.1578812116539783,0.1772117962466488
0.2301089714882818,0.2528383927852484,0.5231987331749803,0.797805375978224,0.299168975069252,0.333069709637329,0.7991280337160296,0.7718799368088467,0.6962481962481962,0.6073049675476181,0.1609970768687161,0.1805630026809651
0.2280191073294521,0.2474434334487479,0.5170229612034839,0.8018033344675061,0.2998082250159812,0.3271946672692351,0.7989827060020346,0.7710637177461822,0.6925324675324674,0.6026386119713232,0.1581703125501911,0.1775692582663092
0.2211524108075832,0.2366535147757468,0.5102137767220903,0.8114154474310992,0.2971446835712763,0.3171393062930742,0.7943031536113937,0.7663243812532912,0.6873737373737374,0.5958936070928605,0.1517137258681057,0.1701519213583557
0.2198835647111509,0.2315001207826717,0.502929532858274,0.8149030282408983,0.2987428084380993,0.3109253191729748,0.7920941723586687,0.7642443391258557,0.6846320346320347,0.592712001018114,0.1504288329960489,0.1678731009830205
0.2272727272727272,0.2384249939608664,0.5008709422011085,0.8069921742089146,0.3047091412742382,0.3151056377810416,0.7945356779537858,0.7670616113744075,0.6883477633477634,0.5972086709370892,0.1554720375188719,0.174798927613941
0.2310792655620241,0.2380223850551574,0.4920031670625496,0.8051207893841443,0.3103558491370125,0.3116032086769856,0.797616625490481,0.7695629278567667,0.6914502164502164,0.6014508123700845,0.1599049179274678,0.1812779267202859
0.2267502612330198,0.2283597713181415,0.4821852731591449,0.8126063286832256,0.310568932452589,0.3013218845328211,0.7937799738410114,0.7673775671406003,0.6886002886002885,0.597293513765749,0.1577848446885741,0.1794012511170688
0.2220480668756531,0.2220790723890812,0.479809976247031,0.818645797890439,0.3080119326656723,0.296124731668738,0.787908734195611,0.7622432859399684,0.6796536796536796,0.588088066856149,0.1520349490861199,0.1710902591599642
0.2212270488132557,0.2259441178838876,0.4891528107680126,0.81702960190541,0.3043895163008736,0.3021127556208338,0.7868623746548467,0.759768299104792,0.6749278499278499,0.5834641326941841,0.1492724294111978,0.1659070598748883
0.228466935363487,0.2390691682100008,0.4996041171813143,0.8060564817965294,0.3059876411676965,0.3149926561970399,0.7906699607615172,0.7634544497103739,0.6812049062049061,0.5902515589869767,0.1533519642799782,0.1701519213583557
0.2333184057321988,0.2436589097350833,0.4983372921615203,0.8007825791085404,0.3099296825058598,0.317817195797085,0.7942450225257957,0.7670089520800422,0.6857864357864357,0.594536121834302,0.1569496643217371,0.1754691689008042
0.2313778175847141,0.2366535147757468,0.4886777513855899,0.8056311670636271,0.311740890688259,0.3094565585809513,0.7910478128179044,0.7646392838335966,0.6812770562770561,0.5894031307003776,0.1556647714496803,0.1746201966041108
0.2212270488132557,0.2231258555439246,0.4836104513064134,0.8185607349438585,0.3062007244832729,0.2981584001807705,0.7870658334544398,0.760057925223802,0.6744949494949495,0.5812157977346966,0.1519385821207156,0.169615728328865
0.2214509628302731,0.225380465415895,0.48756927949327,0.8172847907451515,0.3050287662476028,0.3010959213648175,0.7862519982560674,0.7584781463928383,0.6722582972582972,0.5791371484325288,0.1519064597989143,0.1695710455764075
0.232273473652784,0.2351236009340526,0.4837688044338877,0.8058863559033685,0.3140848071595994,0.3066320189809061,0.7878506031100131,0.7608741442864666,0.6757215007215007,0.5847367751240827,0.1564678294947158,0.1751563896336014
0.2367517539931333,0.2424510830179563,0.4886777513855899,0.7995066349098333,0.3155763903686341,0.3135238956050164,0.7904083708763261,0.7649552395997893,0.6802669552669551,0.5895728163576974,0.1601618965018791,0.1798480786416443
0.2280937453351246,0.2320637732506643,0.4866191607284245,0.8098843143926506,0.3101427658214362,0.305502203140888,0.7895364045923557,0.7627698788836229,0.6758658008658008,0.5855427819963518,0.1574636214705599,0.176496872207328
0.219286460665771,0.2198244625171108,0.481076801266825,0.8214528751275944,0.305668016194332,0.2949949158287199,0.7852928353437,0.7584518167456555,0.6695165945165944,0.5776523989309804,0.1518743374771128,0.1698391420911528
0.2206299447678757,0.2198244625171108,0.4782264449722883,0.8206022456617897,0.3075857660345195,0.2939780815727036,0.7847987211161168,0.7578199052132701,0.6679292929292929,0.5751071140711832,0.1505573222832546,0.1685880250223413
0.2328705776981639,0.2348015138094855,0.4818685669041965,0.8058012929567882,0.3151502237374813,0.3057281663088916,0.7883156517947972,0.7611901000526593,0.6725108225108224,0.5794340983328384,0.1542835116122193,0.1716711349419124
0.2395879982086878,0.2461550849504791,0.4899445764053841,0.7959339911534536,0.317174515235457,0.3165743983730651,0.790088649905537,0.7638230647709321,0.675036075036075,0.5826581258219149,0.1571423982525457,0.1746648793565683
0.2374981340498581,0.2405185602705532,0.4832937450514648,0.8001020755358966,0.3179203068399744,0.3102474296689639,0.7879668652812092,0.761032122169563,0.6716089466089467,0.5790098841895389,0.1554720375188719,0.1721626452189454
0.2247350350798626,0.2283597713181415,0.4864608076009502,0.8137972099353521,0.3077988493500959,0.3027906451248446,0.7847115244877197,0.7573986308583465,0.6666666666666666,0.5730284647690155,0.1503967106742475,0.1659964253798034
0.2259292431706225,0.2236089862307754,0.4745843230403802,0.815583531813542,0.3125932239505646,0.2952208789967235,0.7835489027757594,0.7567930489731437,0.66497113997114,0.5689984304076698,0.1489190838713822,0.1668900804289544
0.235184355874011,0.2352041227151944,0.4777513855898655,0.8042701599183396,0.3181333901555508,0.3044853688848717,0.7862519982560674,0.7597419694576092,0.6686507936507936,0.5735799431553049,0.1541550223250136,0.1734137622877569
0.2387669801462905,0.2401159513648442,0.479809976247031,0.7995916978564138,0.3200511399957383,0.3086656874929386,0.7885772416799884,0.7619010005265929,0.6721861471861471,0.5783735629745896,0.1589733705952266,0.1790884718498659
0.2332437677265263,0.2334326435300748,0.4783847980997625,0.8062266076896905,0.3165352652887278,0.3035815162128573,0.787559947682023,0.7612690889942075,0.6708874458874459,0.5766767064013915,0.1574636214705599,0.1777033065236818
0.2268248992386923,0.2252999436347532,0.4761678543151227,0.8142225246682546,0.3126997656083529,0.2970285843407524,0.7841592791745386,0.7578725645076356,0.6660894660894661,0.5711195011241675,0.1539622883942051,0.1719392314566577
0.2280937453351246,0.2234479426684918,0.4696753760886777,0.814477713507996,0.3157894736842105,0.2934131736526946,0.7845952623165238,0.7566877303844128,0.6643217893217893,0.5684469520213804,0.1531592303491696,0.1694369973190348
0.2360800119420809,0.2337547306546421,0.4728424386381631,0.8044402858115006,0.3203707649691029,0.3017738108688284,0.7866298503124546,0.7602422327540811,0.6681818181818181,0.5731133075976753,0.1576563554013684,0.1754691689008042
0.2442155545603821,0.2447862146710685,0.4774346793349169,0.7940626063286832,0.3246324312806307,0.3111512823409784,0.7886353727655864,0.7633754607688257,0.6724386724386724,0.57803419165995,0.1610613215123189,0.181769436997319
0.2339155097775787,0.234962557371769,0.479809976247031,0.8050357264375638,0.3165352652887278,0.3051632583888826,0.785496294143293,0.7604002106371774,0.6689033189033189,0.5730708861833455,0.1566926857473258,0.176496872207328
0.2203313927451858,0.220549158547387,0.4806017418844023,0.820432119768629,0.3065203494566376,0.2953338605807253,0.7818921668362157,0.7562927856766719,0.6634559884559884,0.5652653459466339,0.1511034017538787,0.1672028596961572
0.2233169129720853,0.2242531604799098,0.4815518606492479,0.8167744130656686,0.3083315576390368,0.2982713817647723,0.7836070338613573,0.7561084781463928,0.6624819624819626,0.5642048105883851,0.150203976743439,0.1651474530831099
0.2319002836244215,0.237378210806023,0.4889944576405385,0.8049506634909833,0.3119539740038355,0.3100214665009603,0.7855834907716902,0.7589784096893101,0.6672077922077922,0.5698892801085989,0.1549902026918505,0.1707327971403038
0.2368263919988057,0.2424510830179563,0.4886777513855899,0.7994215719632529,0.3156829320264223,0.3135238956050164,0.7870658334544398,0.7605581885202738,0.670021645021645,0.5731557290120053,0.1576563554013684,0.175692582663092
0.2301836094939543,0.2314195990015299,0.481076801266825,0.8090336849268459,0.3134455572128702,0.30312958987685,0.7859322772852783,0.759083728278041,0.6665584415584416,0.5698468586942689,0.1545404901866306,0.1742180518319928
0.2194357366771159,0.2174088090828569,0.476326207442597,0.8225586934331406,0.3073726827189431,0.2916054683086656,0.782735067577387,0.7552922590837283,0.6612193362193363,0.5617443685572477,0.1481160258263467,0.1669794459338695
0.2239140170174653,0.2199049842982526,0.4715756136183689,0.8187308608370194,0.3121670573194118,0.2916054683086656,0.7817759046650196,0.7548973143759873,0.6608946608946609,0.5608110974419888,0.1475057017121197,0.166130473637176
0.2321988356471115,0.2298091633786939,0.4734758511480603,0.8087784960871044,0.3173875985510334,0.2992882160207886,0.7861648016276704,0.758794102159031,0.665981240981241,0.5682772663640606,0.1530307410619639,0.1715817694369973
0.2354082698910284,0.2370561236814558,0.4809184481393507,0.8030792786662131,0.3172810568932452,0.3069709637329115,0.7892166836215666,0.7617693522906793,0.6707070707070707,0.5741738429559242,0.1575278661141627,0.1760053619302949
0.2345126138229586,0.2297286415975521,0.4684085510688837,0.8075025518883975,0.3207969316002557,0.2973675290927578,0.7884900450515914,0.7604791995787257,0.6683982683982683,0.5711195011241675,0.1566605634255244,0.1754244861483467
0.2237647410061203,0.2153152427731701,0.4628661916072843,0.8212827492344336,0.3149371404219049,0.2852784996045645,0.7841302136317396,0.7563717746182201,0.6624819624819626,0.5645866033173547,0.1537053098197937,0.1710455764075067
0.2220480668756531,0.2164425477091553,0.4687252573238322,0.8216230010207555,0.3118474323460473,0.2881030392046096,0.7811655282662403,0.7549763033175355,0.6604617604617605,0.5622958469435372,0.1534804535671838,0.1708668453976765
0.2324227496641289,0.2270714228198727,0.4677751385589866,0.810139503232392,0.3195184317067973,0.2952208789967235,0.785060311001308,0.757635597682991,0.664141414141414,0.5680651592924109,0.1570460312871414,0.1781054512957998
0.235333631885356,0.2330300346243659,0.4731591448931117,0.8052909152773052,0.3198380566801619,0.3013218845328211,0.7878506031100131,0.7597946287519748,0.6678210678210678,0.5723497221397361,0.1586842696990138,0.1802949061662198
0.2266009852216748,0.2275545535067236,0.4809184481393507,0.8131167063627085,0.3108885574259535,0.3003050502768049,0.7856416218572881,0.7591890468667719,0.6656926406926407,0.5686166376787003,0.1547653464392406,0.1748882931188561
0.218987908643081,0.2170062001771479,0.4764845605700714,0.8230690711126235,0.3069465160877903,0.2913795051406621,0.7812236593518385,0.7541337546076883,0.6587301587301586,0.5600899333983795,0.147987536539141,0.1664879356568364
0.2230929989550679,0.2200660278605363,0.4736342042755344,0.8190711126233414,0.3108885574259535,0.2925093209806801,0.7795959889550937,0.7531332280147446,0.6571067821067822,0.5583506554108515,0.1467990106324885,0.1651474530831099
0.2366771159874608,0.2339157742169256,0.4720506730007918,0.8041000340251787,0.3211165565736203,0.3016608292848265,0.7838976892893474,0.7570300157977883,0.6627344877344877,0.5650532388749842,0.1529022517747583,0.1723860589812332
0.2363039259590983,0.2350430791529108,0.4750593824228029,0.8036747192922763,0.3198380566801619,0.3034685346288555,0.7866007847696556,0.7587677725118483,0.6656565656565656,0.5682348449497306,0.1567569303909286,0.1761394101876675
0.2244364830571727,0.2239310733553426,0.4783847980997625,0.8163490983327663,0.3102493074792243,0.2968026211727488,0.7852928353437,0.7567667193259611,0.6628787878787878,0.5636533322020957,0.1542192669686165,0.1729669347631814
0.2164502164502164,0.210564457685804,0.4690419635787807,0.8279176590677102,0.3076923076923076,0.2841486837645463,0.782764133120186,0.753580832016851,0.6585497835497836,0.5582658125821915,0.1497542642382191,0.1673369079535299
0.2183908045977011,0.2116112408406474,0.4669833729216153,0.8262164001361008,0.3097165991902834,0.2841486837645463,0.7825316087777939,0.7537388098999473,0.6583333333333333,0.5580961269248718,0.1492724294111978,0.1666666666666666
0.2286908493805045,0.2250583782913278,0.4715756136183689,0.8132868322558694,0.3155763903686341,0.2952208789967235,0.7861938671704694,0.7583728278041074,0.6633838383838383,0.5640775463453952,0.1539301660724037,0.1723860589812332
0.2300343334826093,0.2267493356953056,0.4722090261282661,0.8115855733242601,0.3163221819731515,0.2965766580047452,0.7897398633919488,0.7609004739336493,0.6665584415584416,0.5684893734357104,0.15701390896534,0.1756032171581769
0.2202567547395133,0.2175698526451405,0.4747426761678543,0.8220483157536577,0.308438099296825,0.2910405603886566,0.7872111611684348,0.7583464981569248,0.6637085137085137,0.5653501887752937,0.1543477562558221,0.1722520107238606
0.2116733840871771,0.2071020210967066,0.4723673792557404,0.832425995236475,0.3032175580652035,0.2829058863405265,0.7819502979218137,0.7533965244865719,0.6571067821067822,0.5583930768251814,0.1506536892486588,0.1674709562109025
0.2172712345126138,0.2127385457766326,0.4715756136183689,0.8263014630826813,0.3073726827189431,0.2865212970285843,0.7813108559802354,0.7532122169562928,0.6559163059163059,0.5575870699529123,0.1503967106742475,0.166532618409294
0.2313031795790416,0.2261051614461711,0.4680918448139352,0.8112453215379382,0.3185595567867036,0.2946559710767145,0.7836651649469554,0.7568457082675092,0.6606421356421356,0.562380689772197,0.154412000899425,0.172207327971403
0.2307060755336617,0.2288429020049923,0.4747426761678543,0.810139503232392,0.3160025569997869,0.2989492712687831,0.7866589158552536,0.7593206951026856,0.6651875901875902,0.5667076740338524,0.1566926857473258,0.1743521000893655
0.218987908643081,0.2174893308639987,0.4772763262074426,0.8228138822728821,0.3067334327722139,0.2919444130606711,0.7848568522017149,0.7565560821484992,0.6615079365079365,0.5631018538158062,0.1514888696154958,0.167426273458445
0.2127929541722645,0.2055721072550124,0.466825019794141,0.832596121129636,0.3058810995099083,0.2798553835724776,0.7813980526086325,0.7531332280147446,0.6560966810966812,0.5563992703516736,0.1460601972310558,0.1614834673815907
0.2163009404388714,0.2047668894435945,0.4577988915281077,0.8310649880911877,0.3113147240571063,0.2760140097164161,0.782735067577387,0.7551606108478146,0.6593434343434343,0.5572052772239426,0.1490154508367865,0.1650580875781948
0.2237647410061203,0.2140268942749013,0.4601741884402217,0.8219632528070773,0.3158960153419987,0.2833578126765336,0.7858450806568813,0.7573723012111637,0.6625541125541126,0.5621685827005473,0.1547332241174392,0.1724307417336908
0.2241379310344827,0.2153957645543119,0.462074425969913,0.8209424974481117,0.3155763903686341,0.2850525364365608,0.7880249963668071,0.759373354397051,0.6655483405483406,0.5666228312051924,0.1586521473772124,0.1773011617515639
0.2169726824899238,0.2039616716321765,0.4547901821060967,0.8311500510377681,0.3129128489239292,0.2744322675403909,0.785321900886499,0.7561348077935756,0.6617965367965367,0.5632291180587962,0.1549902026918505,0.1722520107238606
0.20935960591133,0.1965536677671309,0.4565320665083136,0.8394011568560735,0.3068399744300021,0.2698000225963168,0.782880395291382,0.7532385466034754,0.6575036075036075,0.5566537988376533,0.1501397320998361,0.1660411081322609
0.2100313479623824,0.1968757548916982,0.4557403008709423,0.8388057162300103,0.3075857660345195,0.2698000225963168,0.7832001162621711,0.7531332280147446,0.6565656565656566,0.5551690493361049,0.1491118178021907,0.1642984807864164
0.2207792207792207,0.2079877606892664,0.4546318289786224,0.8268118407621641,0.3156829320264223,0.2771438255564343,0.785234704258102,0.7567140600315956,0.6628066378066377,0.5618292113859077,0.1533840866017795,0.1693923145665773
0.2276459173010896,0.2137048071503342,0.4514647664291371,0.819921742089146,0.3216492648625612,0.2800813467404813,0.7875018165964249,0.7592417061611375,0.6655483405483406,0.5661986170618929,0.1568854196781343,0.1733690795352993
0.2211524108075832,0.2083098478138336,0.4546318289786224,0.8263865260292617,0.3158960153419987,0.2774827703084396,0.7844208690597296,0.7558188520273829,0.6608225108225109,0.561532261485598,0.1538659214288008,0.170420017873101
0.2110762800417972,0.2013849746356389,0.4623911322248614,0.8358285130996939,0.3060941828254847,0.2753361202124053,0.7809620694666473,0.7515271195365982,0.6546536796536796,0.5544903067068256,0.1478269249301339,0.1638069705093833
0.2186893566203911,0.2108060230292293,0.4647664291369755,0.8265566519224227,0.3107820157681653,0.2827929047565246,0.780177299811074,0.7528699315429173,0.6554834054834054,0.5552963135790948,0.1479554142173396,0.1640750670241287
0.2323481116584564,0.2203075932039616,0.4544734758511481,0.8137121469887717,0.3239931813339015,0.2858434075245735,0.785147507629705,0.7573723012111637,0.6627344877344877,0.5619564756288975,0.1521634383733256,0.1706434316353887
0.2280937453351246,0.2169256783960061,0.4568487727632622,0.8179652943177952,0.3200511399957383,0.2842616653485481,0.7887225693939834,0.7610584518167457,0.6672077922077922,0.5667925168625123,0.1553114259098647,0.1746201966041108
0.2175697865353038,0.2074241082212738,0.4604908946951703,0.8289384144266758,0.3113147240571063,0.2789515309004631,0.7868914401976457,0.7593996840442337,0.6629870129870129,0.5625503754295168,0.1517137258681057,0.1699285075960679
0.2127929541722645,0.1923665351477574,0.4410134600158353,0.8395712827492345,0.3145109737907521,0.2613264037961811,0.7868914401976457,0.757056345444971,0.6613275613275613,0.5591990836974505,0.1492403070893964,0.1648793565683646
0.2210031347962382,0.1895482728077945,0.4178939034045922,0.8364239537257571,0.3281483059876411,0.2511580612360185,0.7909896817323063,0.7611637704054766,0.6661616161616161,0.5641623891740551,0.1537053098197937,0.1686773905272564
0.2307807135393342,0.1975199291408326,0.41298495645289,0.8266417148690032,0.3367781802684849,0.25499943509208,0.7990699026304316,0.7685887309110058,0.676010101010101,0.5741738429559242,0.1600655295364748,0.1761840929401251
0.2358560979250634,0.1952653192688622,0.397624703087886,0.8249404559373937,0.345514596207117,0.2479945768839678,0.8061909606161894,0.7737493417588205,0.6827200577200577,0.5815127476350063,0.1622498474189714,0.1790437890974084
0.2389162561576354,0.1848780095015702,0.3708630245447348,0.8286832255869344,0.3567014702748775,0.2311603208676985,0.8034006685074844,0.7740916271721958,0.6817821067821067,0.5795189411614984,0.1614146670521345,0.1767202859696157
0.2384684281236005,0.173363394798293,0.3491686460807602,0.8350629465804695,0.3637332196888983,0.2153428991074455,0.7989827060020346,0.7705107951553449,0.6757215007215007,0.5728587791116956,0.1566605634255244,0.1709562109025915
0.2524257351843558,0.1742491343908527,0.3212984956452889,0.8265566519224227,0.3831238014063498,0.2059654276352954,0.7980526086324662,0.7723802001053186,0.6765873015873016,0.5740041572986044,0.157399376826957,0.1723860589812332
0.2724287207045828,0.1719945245188823,0.2744259699129058,0.8164341612793469,0.4130620072448327,0.1876624110270026,0.7995640168580148,0.775144813059505,0.6793290043290043,0.5756161710431427,0.1591018598824323,0.1749776586237712
0.2728019107329452,0.1597552137853289,0.2495645288994457,0.822643756379721,0.4216918815256765,0.1702632470907242,0.7982851329748584,0.7726698262243286,0.6753246753246753,0.5700165443515888,0.1558575053804889,0.1712689901697944
0.2639946260635916,0.1442145100249617,0.2376880443388757,0.8359135760462743,0.4194545067121243,0.1550107332504801,0.7920941723586687,0.7651132174828856,0.6639249639249639,0.5558053705510542,0.1467668883106871,0.1615281501340482
0.2587699656665174,0.1423625090587003,0.2451306413301663,0.8398264715889759,0.4132750905604091,0.1564794938425036,0.7869205057404447,0.7613217482885729,0.6604978354978355,0.5515208077037289,0.1444862034627863,0.1577747989276139
0.2636214360352291,0.151703035671149,0.2532066508313539,0.8320857434501531,0.4140208821649264,0.1658569653146537,0.7857578840284842,0.7610057925223802,0.6624819624819626,0.5552114707504349,0.1493366740548007,0.1642091152815013
0.2748171368861024,0.173363394798293,0.2720506730007918,0.814307587614835,0.4156190070317494,0.1877753926110044,0.7833745095189653,0.7621116377040548,0.6667027417027417,0.5631442752301362,0.1567248080691272,0.1750670241286863
0.2794446932377967,0.1875352282792495,0.2901029295328583,0.8041850969717592,0.4128489239292563,0.2041577222912665,0.7830257230053771,0.7637704054765666,0.67012987012987,0.5692105374793196,0.1619286242009572,0.1801608579088471
0.2745932228690849,0.1860858362186971,0.2975455265241488,0.8076726777815584,0.4068825910931173,0.2057394644672918,0.7796831855834908,0.7626382306477093,0.6687229437229437,0.5666652526195224,0.1586842696990138,0.1748436103663985
0.2695178384833557,0.182542877848458,0.3013460015835313,0.8125212657366452,0.4019816748348604,0.2047226302112755,0.7762243859904083,0.7604002106371774,0.6657647907647907,0.5618292113859077,0.1523561723041341,0.1664879356568364
0.2801164352888491,0.1930107093968918,0.2994457640538401,0.8009527050017013,0.4101853824845514,0.2112755620833803,0.7760790582764133,0.7612690889942075,0.666955266955267,0.5639502821024054,0.1544441232212264,0.1689454870420018
0.2854903716972682,0.2025122795716241,0.3067300079176564,0.7928717250765567,0.411570424035798,0.2205400519715286,0.7782589739863391,0.7642443391258557,0.6702020202020202,0.569804437279939,0.1598085509620635,0.1761840929401251
0.2848932676518883,0.2062162815041468,0.3154394299287411,0.7911704661449473,0.4082676326443639,0.2263021127556208,0.7783752361575352,0.7637177461822012,0.6684343434343434,0.5697195944512791,0.16199286884456,0.1798480786416443
0.2718316166592028,0.2065383686287141,0.3436262866191608,0.7984858795508677,0.3894097592158533,0.2365834368997853,0.7735503560528993,0.756582411795682,0.6604978354978355,0.5641199677597252,0.1595194500658507,0.1766756032171581
0.2607105538140021,0.211369675497222,0.3767220902612827,0.8022286492004084,0.3703388024717664,0.2517229691560275,0.7681441650922831,0.7518694049499737,0.6556277056277056,0.5591566622831206,0.15701390896534,0.1727435210008936
0.261456933870727,0.2239310733553426,0.3998416468725258,0.7951684246342294,0.3630939697421692,0.2688961699243023,0.7689289347478564,0.7523170089520801,0.6567460317460316,0.5603868832986892,0.1578169670103755,0.1737265415549597
0.2636960740409016,0.2355262098397616,0.4178939034045922,0.787853011228309,0.358619220115065,0.2833578126765336,0.7743351257084726,0.7578725645076356,0.6639249639249639,0.5681500021210707,0.1610613215123189,0.1763181411974977
0.2522764591730109,0.2354456880586199,0.4418052256532067,0.7943177951684246,0.3424248881312593,0.2918314314766693,0.7780555151867461,0.761216429699842,0.6672799422799423,0.572604250625716,0.1620249911663615,0.1765415549597855
0.2396626362143603,0.2276350752878653,0.4533650039588282,0.8057162300102075,0.3295333475388877,0.2905886340526494,0.7761081238192122,0.7591627172195892,0.6647907647907647,0.5675136809061214,0.1585879027336096,0.173100983020554
0.2362292879534259,0.2158788952411627,0.4375296912114014,0.8138822728819327,0.3324099722991689,0.2765789176364253,0.7719517511989537,0.7540284360189573,0.6558080808080808,0.5568234844949731,0.1511676463974816,0.1656836461126005
0.2356321839080459,0.2174088090828569,0.4418052256532067,0.81337189520245,0.3304922224589814,0.2792904756524686,0.7745676500508647,0.7566614007372301,0.6586580086580086,0.5590293980401306,0.151199768719283,0.1655049151027703
0.2307807135393342,0.2236089862307754,0.4642913697545527,0.8128615175229671,0.3195184317067973,0.2916054683086656,0.7820956256358087,0.7625065824117957,0.6668831168831169,0.5689560089933399,0.1578812116539783,0.172207327971403
0.2207792207792207,0.2161204605845881,0.4706254948535234,0.8224736304865602,0.3102493074792243,0.2886679471246186,0.7853800319720972,0.7624012638230647,0.6684343434343434,0.5718830865821067,0.1604509973980919,0.175692582663092
0.2099567099567099,0.198566712295676,0.4592240696753761,0.8379550867642056,0.3063072661410611,0.2721726358603548,0.7825606743205928,0.759478672985782,0.664141414141414,0.5669197811055021,0.1561466062767016,0.1702412868632707
0.2042095835199283,0.1889846203398019,0.4525732383214569,0.8462912555290916,0.3044960579586618,0.2631341091402101,0.7769219590175847,0.7548709847288047,0.6577200577200577,0.5603868832986892,0.1506215669268575,0.1630920464700625
0.2068219137184654,0.193735405427168,0.4563737133808393,0.8422932970398095,0.3050287662476028,0.267879335668286,0.77793925301555,0.7562664560294892,0.659054834054834,0.5610232045136385,0.1504288329960489,0.1626005361930294
0.2153306463651291,0.2086319349384008,0.467458432304038,0.8296189179993195,0.3073726827189431,0.2822279968365156,0.7831710507193721,0.7619010005265929,0.667135642135642,0.5680227378780809,0.1556968937714818,0.1698838248436103
0.2167487684729064,0.2099202834366696,0.4671417260490895,0.8280877849608712,0.3085446409546132,0.2830188679245283,0.7832873128905682,0.7630331753554502,0.6705266955266954,0.5704831799092183,0.1573672545051556,0.1721179624664879
0.2095835199283474,0.2029148884773331,0.4685669041963579,0.8359135760462743,0.3030044747496271,0.2786125861484578,0.7772707455311728,0.758609794628752,0.6664502164502164,0.5675985237347814,0.1545726125084321,0.1672922252010723
0.2095835199283474,0.2013044528544971,0.4653998416468725,0.8366791425654986,0.304069891327509,0.2763529544684216,0.7707600639441942,0.7558451816745656,0.6676767676767676,0.5718830865821067,0.153416208923581,0.1646112600536193
0.2200328407224959,0.2088735002818262,0.4581155977830562,0.8268118407621641,0.3139782655018112,0.279064512484465,0.7689580002906554,0.7631384939441811,0.6859307359307358,0.5933059008187334,0.1610291991905175,0.1702859696157283
0.2471264367816091,0.2212738545776633,0.4250197941409342,0.8047805375978225,0.344449179629235,0.2759010281324144,0.7711379160005813,0.7787783043707215,0.7191919191919192,0.6315700165443516,0.1763836690115961,0.1837354781054513
0.2696671144947007,0.2328689910620822,0.3998416468725258,0.7858115005103777,0.3689537609205199,0.2751101570444018,0.7560238337450952,0.7697735650342284,0.7276334776334776,0.667034318924193,0.1947576370820083,0.199195710455764
0.2785490371697268,0.2608905708994283,0.4364212193190815,0.7659918339571282,0.3629874280843809,0.307874816404926,0.713559075715739,0.7099789362822538,0.6909090909090908,0.6984261655283588,0.2231216472326619,0.2203306523681858
0.2944469323779668,0.3112166841130526,0.5015043547110056,0.730265396393331,0.3524398039633497,0.3663992769178623,0.6483359976747566,0.6088467614533964,0.6082611832611833,0.718364230263437,0.265362500401529,0.2546023235031278
0.3507986266606956,0.4050245591432483,0.5665874901029296,0.6486049676760803,0.3707649691029192,0.4554287651112867,0.5572445865426536,0.4975513428120062,0.52005772005772,0.7600220591354516,0.3430663968391635,0.3248882931188561
0.4280489625317211,0.5155809646509381,0.6199524940617578,0.5462742429397754,0.4079480076709993,0.5520280194328324,0.4672867315797122,0.4063454449710373,0.447943722943723,0.8197089890976966,0.4493270373582603,0.4214030384271671
0.5042543663233319,0.6270231097511877,0.677434679334917,0.4439435182034705,0.4430002130833156,0.6506609422664104,0.3605289928789419,0.2974460242232754,0.3311327561327561,0.8245874517456413,0.5590568886319103,0.5277926720285969
0.5862068965517241,0.7342781222320637,0.7146476642913699,0.3405920381082001,0.4889196675900277,0.7392385041238279,0.2247638424647579,0.1652185360716166,0.1813492063492063,0.797268060917151,0.6779737239407665,0.6455317247542449
0.6989102851171817,0.8470891376117241,0.6972288202692003,0.2168254508336168,0.5752184103984658,0.8121116258049937,0.1111757012062199,0.0719062664560295,0.0794372294372294,0.8025283162940653,0.8195689184414249,0.7840035746201965
0.8268398268398269,0.9088493437474836,0.5471100554235946,0.1112623341272541,0.7171318985723417,0.8019432832448311,0.0601366080511552,0.0648499210110584,0.0697691197691198,0.8259873584185298,0.9306479072307348,0.8993297587131368
0.8983430362740707,0.9014413398824382,0.3809976247030879,0.0744300782579109,0.8239931813339015,0.7374307987797989,0.0797558494404883,0.1072669826224328,0.0832251082251082,0.7660034785559752,0.9471587806366644,0.9466934763181412
0.8849081952530229,0.8317899991947821,0.2725257323832146,0.1189179993194964,0.8509482207543149,0.6498700711783979,0.133614300247057,0.1581095313322801,0.0615440115440115,0.5673439952488016,0.8436285374706883,0.9092493297587132
0.8139274518584864,0.726628553023593,0.2163103721298495,0.2148690030622661,0.8191988067334327,0.5559823748728956,0.2055805842174102,0.209662980516061,0.0328282828282828,0.325711619225385,0.6831132954289937,0.8242627345844504
0.748619196895059,0.6331427651179643,0.171021377672209,0.3014630826811841,0.7877690176859151,0.4742966896395887,0.2849876471443103,0.2751974723538704,0.042027417027417,0.1495779069274169,0.5502553724583212,0.7436550491510278
0.693610986714435,0.5972300507287223,0.2171021377672209,0.3518203470568221,0.7330066055827829,0.4654841260874477,0.3633774160732451,0.3496577145866245,0.1002525252525252,0.0902727696941416,0.4500337284378915,0.6708668453976765
0.6236751753993134,0.5902246557693857,0.3517022961203483,0.3953725757060224,0.6377583635201364,0.5086430911761383,0.4412730707745966,0.4176145339652449,0.1782106782106782,0.1187799601238704,0.3691818444637178,0.594906166219839
0.5362740707568293,0.558418552218375,0.4745843230403802,0.4619768628785302,0.5340933304922224,0.5301095921364817,0.5130649614881557,0.4814639283833596,0.2626623376623377,0.1846179951639588,0.3063184606983393,0.5163092046470062
0.4203612479474548,0.4865126016587486,0.5790973871733968,0.5660088465464445,0.4162582569784785,0.517003728392272,0.5841011480889405,0.5485518694049499,0.3588023088023088,0.2696729308955161,0.2484661591339822,0.4231456657730115
0.312509329750709,0.4171833480956599,0.671575613618369,0.6640864239537257,0.3081184743234604,0.5014122698000225,0.656823136172068,0.6232227488151659,0.4661616161616161,0.3707207398294659,0.2043622113006328,0.3306076854334226
0.2519779071503209,0.3565504468958853,0.6806017418844023,0.7305205852330725,0.2618793948433838,0.4620946785673934,0.7211161168434821,0.6922327540810953,0.564141414141414,0.4629448945827854,0.1738138832674825,0.2558087578194817
0.2200328407224959,0.2904420645784685,0.6185273159144893,0.7836849268458659,0.2599616450031962,0.3935148570782962,0.7691033280046505,0.7425223802001053,0.6322150072150071,0.5234802528316295,0.1472487231377083,0.1972743521000894
0.1993581131512165,0.2379418632740156,0.5591448931116391,0.8231541340592039,0.2651821862348178,0.3355553044853689,0.7952041854381631,0.7716429699842022,0.6693362193362193,0.5555932634794044,0.1360059105072114,0.1669794459338695
0.1822660098522167,0.2084708913761172,0.5376088677751387,0.8485028921401837,0.2602812699765608,0.3071969269009151,0.8058712396454003,0.7834123222748814,0.6881313131313131,0.5702710728375685,0.1286498988146863,0.1492850759606792
0.1756232273473652,0.1902729688380706,0.515914489311164,0.861942837699898,0.2627317281056893,0.2866342786125861,0.8128179043743642,0.7914955239599789,0.7006493506493506,0.5795189411614984,0.123349715717452,0.1376675603217158
0.1809971637557844,0.1868910540301151,0.4977038796516231,0.860666893501191,0.2727466439377796,0.2777087334764433,0.8211887807004795,0.8005002632964718,0.7115800865800865,0.5883001739277988,0.1238636728662747,0.1355227882037533
0.1847290640394088,0.1940574925517352,0.5038796516231195,0.854712487240558,0.2732793522267206,0.2850525364365608,0.8268856270890859,0.8078462348604529,0.722041847041847,0.5989903703389471,0.1292923452507147,0.1407506702412868
0.1837587699656665,0.1939769707705934,0.5057798891528108,0.8553079278666214,0.2720008523332623,0.2856174443565698,0.8278447900014533,0.8092417061611374,0.7239538239538239,0.6012387052984347,0.1308663390189842,0.1424932975871313
0.1781609195402299,0.1834286174410177,0.4970704671417261,0.8640694113644097,0.2709354357553803,0.2751101570444018,0.8251126289783461,0.8061348077935755,0.7195887445887446,0.59644508547915,0.1263370916449841,0.1363717605004468
0.1728616211374831,0.1747322650777035,0.491053048297704,0.871725076556652,0.269124227572981,0.2668625014122698,0.8258683330911205,0.8057925223802,0.7183621933621933,0.5948754931489416,0.1214866210529697,0.1296693476318141
0.1730108971488281,0.1818987035993236,0.5048297703879652,0.8678121810139503,0.2646494779458768,0.2768048808044288,0.8320883592501089,0.8113480779357556,0.7277417027417027,0.6040385186442117,0.123574571970062,0.1307864164432529
0.1841319599940289,0.1915613173363395,0.5002375296912115,0.856328683225587,0.2741316854890261,0.282002033668512,0.8393256794070629,0.8182201158504476,0.737950937950938,0.6135833368684512,0.1273328836208281,0.1354334226988382
0.1852515300791162,0.1895482728077945,0.4937450514647665,0.8567539979584893,0.2771148519070956,0.2782736413964523,0.8417090539165819,0.8214323328067404,0.743001443001443,0.6186314851737157,0.1273650059426295,0.1346738159070598
0.1766681594267801,0.1788388759159352,0.491053048297704,0.867386866281048,0.2718943106754741,0.2698000225963168,0.8396454003778521,0.8199578725645076,0.742027417027417,0.6172739999151572,0.1224181683852108,0.1272564789991063
0.1680101507687714,0.1652306949029712,0.4826603325415678,0.8794658046954748,0.26859151928404,0.2572590667721161,0.8387734340938817,0.8180621379673513,0.7396464646464647,0.6132439655538117,0.1170858629661752,0.1204200178731009
0.1704732049559635,0.1720750463000241,0.491053048297704,0.874447090847227,0.267526102706158,0.264941814484239,0.8424066269437581,0.8215376513954713,0.745093795093795,0.6179951639587664,0.1194307924576788,0.1223860589812332
0.1805493357217495,0.1860858362186971,0.4970704671417261,0.8612623341272543,0.2726401022799914,0.2769178623884306,0.8469989827060019,0.8273828330700369,0.7542568542568542,0.6290671530988844,0.1252770550255372,0.1280607685433422
0.1840573219883564,0.1910781866494887,0.4994457640538401,0.8566689350119089,0.2743447688046026,0.2813241441645011,0.8482197355035604,0.8292259083728278,0.7587662337662338,0.6339456157468291,0.1249879541293244,0.1281501340482573
0.1711449470070159,0.1856027055318463,0.5160728424386382,0.8669615515481457,0.2595354783720434,0.2834707942605355,0.8454003778520564,0.8268299104791996,0.7533189033189033,0.6276248250116659,0.119366547814076,0.1211796246648793
0.1688311688311688,0.1802077461953458,0.5103721298495646,0.8711296359305887,0.2597485616876198,0.2775957518924415,0.844324952768493,0.825539757767246,0.7517676767676768,0.6242735332795997,0.116539783495551,0.1181411974977658
0.1721898790864308,0.1846364441581447,0.5119556611243072,0.8668764886015653,0.2616663115278073,0.2812111625804993,0.8473768347623892,0.8291205897840969,0.7578282828282829,0.6289823102702244,0.1208762969387427,0.1227882037533512
0.1770413494551425,0.1909976648683469,0.514172604908947,0.860666893501191,0.2644363946303004,0.2865212970285843,0.8528411568086034,0.8347024749868353,0.764033189033189,0.6373393288932253,0.1268510487938068,0.1301608579088471
0.1790565756082997,0.1862468797809807,0.5005542359461599,0.8621129635930589,0.2704027274664393,0.2782736413964523,0.8539165818921669,0.8385466034755135,0.7706349206349206,0.6448903406439571,0.1285856541710834,0.1333780160857909
0.1690550828481863,0.1736854819228601,0.4970704671417261,0.8743620279006465,0.2644363946303004,0.2683312620042933,0.8538003197209708,0.8368351764086361,0.7707070707070707,0.6425147414414797,0.123574571970062,0.1266309204647006
0.1611434542469025,0.1628150414687173,0.4924782264449723,0.8846546444368834,0.260387811634349,0.259066772116145,0.8524051736666183,0.8358609794628751,0.7695165945165945,0.6399694565816825,0.1184992451254376,0.1205540661304736
0.1625615763546798,0.1691762621789194,0.5019794140934284,0.8804865600544403,0.2581504368207969,0.2668625014122698,0.8563290219444848,0.8400737230121116,0.7757575757575756,0.6460781402451958,0.1191738138832674,0.1225647899910634
0.1711449470070159,0.1802077461953458,0.5054631828978623,0.8697686287853011,0.2631578947368421,0.2757880465484126,0.861677081819503,0.8459715639810427,0.7846320346320346,0.6570228651423239,0.1215187433747711,0.1267202859696157
0.1640543364681295,0.1773894838553829,0.5149643705463184,0.8752977203130318,0.2548476454293629,0.2772568071404361,0.863915128615027,0.8482359136387573,0.7880952380952381,0.6599075213167608,0.1202980951463171,0.1258266309204647
0.1521122555605314,0.167726870118367,0.521298495645289,0.8872065328342974,0.2441934796505433,0.2727375437803638,0.8636244731870367,0.8463665086887836,0.7848845598845597,0.6519322954227295,0.1116250682599338,0.1138516532618409
0.1494999253619943,0.1650696513406876,0.5217735550277118,0.8900986730180334,0.2421691881525676,0.2710428200203366,0.861735212905101,0.8461822011585045,0.786075036075036,0.6517201883510797,0.1077703896437634,0.1086237712243074
0.1497238393790118,0.1682905225863596,0.5274742676167854,0.888227288193263,0.2404645216279565,0.2753361202124053,0.8653102746693795,0.8510795155344918,0.7937229437229437,0.6577016077716031,0.109119527159423,0.1101876675603217
0.158008658008658,0.1811740075690474,0.5352335708630246,0.8767437904048997,0.2437673130193905,0.2870862049485933,0.8717628251707601,0.8592943654555029,0.8044011544011543,0.6671191617528529,0.1138736307860332,0.1160857908847185
0.1551724137931034,0.1838312263467268,0.5464766429136976,0.8769139162980607,0.2379075218410398,0.2930742289006891,0.876645836360994,0.8629278567667192,0.8091991341991341,0.671700674500488,0.1143233432912531,0.1165773011617515
0.1452455590386625,0.1737660037040019,0.5477434679334918,0.8879720993535217,0.2304496057958661,0.2864083154445825,0.8748147071646564,0.8628488678251712,0.8089105339105338,0.66979171085564,0.1086698146542032,0.1105898123324396
0.1430064188684878,0.168934696835494,0.5429928741092637,0.8917999319496428,0.2304496057958661,0.2813241441645011,0.8747565760790582,0.8648235913638758,0.8124458874458874,0.6700886607559497,0.1038193440621888,0.104781054512958
0.1503209434243917,0.1771479185119574,0.5436262866191608,0.8832936372915959,0.2354570637119113,0.287312168116597,0.8807731434384537,0.8714586624539232,0.8221139971139971,0.6794637933228694,0.1043011788892101,0.1042448614834673
0.1544260337363785,0.1878573154038167,0.5559778305621537,0.8752977203130318,0.234178563818453,0.2991752344367868,0.8901031826769364,0.8805687203791469,0.8338023088023088,0.6920205319645358,0.1076097780347563,0.1077747989276139
0.1492013733393043,0.1850390530638537,0.5615201900237531,0.8797209935352162,0.2285318559556786,0.2991752344367868,0.8923121639296614,0.8857293312269615,0.84004329004329,0.6965596232978408,0.1044617904982172,0.1048704200178731
0.1375578444543961,0.1732828730171511,0.5631037212984957,0.8925654984688671,0.2196888983592584,0.2916054683086656,0.8932422612992298,0.886756187467088,0.8421356421356421,0.6931659101514446,0.0967845555876778,0.0960232350312779
0.1321092700403045,0.1693373057412029,0.5669041963578781,0.8977543382102757,0.2145748987854251,0.2901367077166421,0.893794506612411,0.8894418114797261,0.8473304473304474,0.6943112883383533,0.0904885805145996,0.0889633601429848
0.1400208986415883,0.1783557452290844,0.5678543151227237,0.8884824770330044,0.2199019816748348,0.2968026211727488,0.8992588286586252,0.8973143759873617,0.8578643578643578,0.7023289356467145,0.0897497671131669,0.0899463806970509
0.141364382743693,0.1901119252757871,0.58812351543943,0.8815073154134061,0.2140421904964841,0.3122810981809965,0.91088504577823,0.9084254870984728,0.8744588744588745,0.7161158953039496,0.0946323600269827,0.0958891867739052
0.1344976862218241,0.1885014896529511,0.599366587490103,0.8862708404219123,0.2054123162156403,0.3151056377810416,0.9171922685656156,0.9153501843075302,0.8838744588744589,0.7229457430110721,0.0928013876843018,0.0924932975871313
0.1262875055978504,0.1802077461953458,0.6004750593824228,0.8952875127594421,0.1991263584061368,0.3096825217489549,0.916291236738846,0.9170879410215904,0.8871212121212121,0.7227336359394223,0.0843853393723298,0.0809204647006255
0.1133004926108374,0.1786778323536516,0.6251781472684086,0.9035386185777476,0.1815469848710845,0.3174782510450796,0.9203604127307078,0.9223275408109533,0.8937229437229437,0.7257031349425191,0.0777681410812373,0.0719392314566577
0.1166592028660994,0.1842338352524358,0.6288202692003169,0.8986900306226608,0.1827189431067547,0.3226754039091628,0.9289347478564162,0.9314902580305424,0.9066738816738816,0.7351631103380987,0.0756159455205422,0.0703306523681858
0.1204657411553963,0.1951042757065786,0.6422802850356296,0.8907791765906772,0.1809077349243554,0.3351033781493616,0.9382357215521,0.942654028436019,0.9219696969696968,0.7470835277648157,0.0760656580257621,0.0726541554959785
0.1131512165994924,0.1947016668008696,0.6570071258907364,0.8952024498128616,0.1706797357766886,0.3400745678454412,0.9437000435983142,0.9487888362295944,0.9308441558441558,0.7501378695965725,0.070090906170698,0.0677390527256479
0.1002388416181519,0.1886625332152346,0.6725257323832147,0.9057502551888398,0.1562966119752823,0.341317365269461,0.946054352565034,0.952132701421801,0.9325757575757576,0.745980570992237,0.0591050721146124,0.0563002680965147
0.0889685027616062,0.1880183589661003,0.6951702296120349,0.9124702279686968,0.1406349882804176,0.349000112981584,0.9500363319284988,0.9558978409689308,0.9383477633477632,0.7462775208925466,0.0515242041694773,0.0474530831099195
0.0929243170622481,0.1980835816088252,0.7065716547901821,0.9048996257230352,0.1395695717025356,0.3600723082137612,0.955529719517512,0.962374934175882,0.9477272727272726,0.7520892546557503,0.0493077639651794,0.0456210902591599
0.0900880728466935,0.2070214993155649,0.7301662707838481,0.9017522966995576,0.1296611975282335,0.3747599141339962,0.9649469553843918,0.9721695629278568,0.9607864357864356,0.7612522801510203,0.0481834827021297,0.0466934763181412
0.0808329601433049,0.2043642805378855,0.7445764053840065,0.9084722694794148,0.1182612401448966,0.3781493616540503,0.9676500508647,0.9760663507109004,0.9665223665223664,0.7613795443940101,0.04163052905464,0.0408400357462019
0.0686669652186893,0.1915613173363395,0.7452098178939035,0.9221674038788704,0.1093117408906882,0.3693367981019093,0.967795378578695,0.9736176935229068,0.963239538239538,0.7520468332414204,0.0289422119430792,0.0275692582663092
0.0552321241976414,0.1884209678718093,0.7675376088677751,0.9314392650561416,0.092265075644577,0.3750988588860015,0.9694811800610376,0.974170616113744,0.9635281385281383,0.7492894413099733,0.0196267386206674,0.0172922252010723
0.0535154500671742,0.1976809727031162,0.7893903404592241,0.92752636951344,0.0836352013637332,0.3893345384702293,0.9746257811364628,0.9779357556608742,0.9698412698412696,0.7556102320451364,0.0176672769907808,0.0163092046470062
0.0586654724585759,0.2100008052178114,0.8026920031670627,0.918084382443008,0.0828894097592158,0.4027793469664444,0.9795669234122948,0.9831226961558714,0.9775974025974026,0.7618886013659697,0.0186309466448234,0.0192582663092046
0.0560531422600388,0.2078267171269828,0.8041171813143311,0.9207213337870024,0.0805454932878755,0.4017625127104282,0.980206365353873,0.9827540810953131,0.9772727272727272,0.7588766809485429,0.0174745430599723,0.0202859696157283
0.0493357217495148,0.1955874063934294,0.7941409342834522,0.9310990132698198,0.0790539100788408,0.3895605016382329,0.9754977474204328,0.9765402843601896,0.9695165945165944,0.7489924914096636,0.0126883171115608,0.0157730116175156
0.041573369159576,0.1872131411546823,0.7941409342834522,0.9399455597141888,0.0735137438738546,0.383685459270139,0.9716029646853656,0.9731964191679832,0.9646464646464646,0.7430110719891402,0.0096045742186245,0.0147453083109919
0.0509777578743095,0.1979225380465416,0.7952494061757721,0.9288873766587274,0.0797997016833582,0.3917071517342673,0.9719808167417526,0.9737493417588204,0.9665945165945165,0.7475925847367753,0.0138447206964119,0.0208668453976764
0.0703836393491565,0.2192608100491182,0.7960411718131434,0.9066008846546446,0.0934370338802471,0.4068466839905095,0.970701932858596,0.9723802001053186,0.9669191919191918,0.7517923047554406,0.0178278885997879,0.0257819481680071
0.0610538886400955,0.2264272485707384,0.8299287410926367,0.9081320176930928,0.075324952056254,0.4240198847587842,0.9666618224095336,0.965007898894155,0.9602092352092352,0.7490773342383236,0.0175066653817738,0.0253351206434316
0.0520226899537244,0.2177308962074241,0.8319873317498021,0.9178291936032664,0.0681866609844449,0.4187097503106993,0.955616916145909,0.9528699315429172,0.9453823953823952,0.7370720739829466,0.0149047573158587,0.0213583556747095
0.0550828481862964,0.2170062001771479,0.8240696753760888,0.916468186457979,0.0730875772427018,0.4153203027906451,0.9460834181078333,0.941205897840969,0.9312409812409812,0.7292241123319053,0.0170569528765539,0.0229222520107238
0.073816987610091,0.2294870762541267,0.8088677751385591,0.8992004083021437,0.0915192840400596,0.4187097503106993,0.9393402121784624,0.932490784623486,0.921031746031746,0.7263818775717983,0.0261475699463557,0.0344504021447721
0.0939692491416629,0.2435783879539415,0.7938242280285036,0.8802313712146989,0.1110164074152993,0.4232290136707716,0.933091120476675,0.9260926803580832,0.9124819624819624,0.726678827472108,0.0393498442067392,0.0503574620196604
0.1008359456635318,0.2449472582333521,0.7819477434679336,0.8756379720993537,0.1198593650117195,0.4198395661507174,0.9217264932422612,0.912954186413902,0.8957431457431457,0.7190853943070463,0.0486010728855481,0.0607238605898123
0.1074040901627108,0.2410016909574039,0.760253365003959,0.8739367131677442,0.1318985723417856,0.4094452604225511,0.905943903502398,0.8960768825697736,0.8725468975468975,0.7047893776778519,0.0561498185088818,0.0691689008042895
0.1144200626959247,0.23455994846606,0.7326999208234364,0.8734263354882613,0.1461751544854037,0.3949836176703197,0.8902194448481325,0.8786729857819905,0.851010101010101,0.6933355958087644,0.0651119462914779,0.078686327077748
0.1269592476489028,0.2408406473951203,0.7184481393507522,0.8628785301122832,0.1599190283400809,0.3943057281663088,0.8802208981252725,0.8669299631384939,0.8357864357864357,0.6875238620455607,0.0776396517940316,0.0920017873100983
0.1409165547096581,0.2476044770110314,0.7021377672209027,0.8513950323239198,0.1753675687193692,0.3932888939102926,0.8753088213922395,0.8593996840442338,0.8231601731601732,0.6848937343571035,0.0936686903729401,0.1086684539767649
0.1545753097477235,0.2426121265802399,0.6633412509897071,0.8462061925825112,0.198167483486043,0.376002711558016,0.8643801772998111,0.8470247498683517,0.8070346320346321,0.6785305222076105,0.1062927628408981,0.1216264521894548
0.1591282280937453,0.2340768177792092,0.6368962787015044,0.848162640353862,0.2103132324738973,0.3605242345497683,0.8501380613282953,0.8315429173249078,0.7847041847041847,0.6640223985067664,0.1121069030869551,0.1268096514745308
0.1642036124794745,0.2286013366615669,0.6153602533650041,0.848162640353862,0.2211804815682932,0.349000112981584,0.8404592355762244,0.8188783570300158,0.7657647907647906,0.6510414457218004,0.1170537406443737,0.1308310991957104
0.1797283176593521,0.2356872534020452,0.5963578780680919,0.8355733242599525,0.2386533134455571,0.347192407637555,0.8355180933003924,0.8126119010005265,0.757972582972583,0.6471810970177746,0.1290674889981047,0.1432082216264522
0.1942080907598149,0.2408406473951203,0.5757719714964371,0.8246002041510718,0.2559130620072448,0.3434640153654954,0.8307513442813544,0.8070036861506056,0.7488816738816738,0.6426844270987995,0.1392181426873534,0.1545129579982126
0.2004776832363039,0.2343989049037765,0.5498020585906572,0.8244300782579108,0.269124227572981,0.3296802621172749,0.8243278593227729,0.7992364402317009,0.7371572871572871,0.6353031010053876,0.1441649802447721,0.159159964253798
0.193312434691745,0.220549158547387,0.537767220902613,0.8358285130996939,0.2680588109950991,0.3156705457010507,0.8157825897398634,0.7895997893628225,0.7228715728715729,0.6230433122640309,0.1441971025665735,0.15656836461126
0.1926406926406926,0.2190997664868347,0.5363420427553445,0.83693433140524,0.2680588109950991,0.3140888035250254,0.8081383519837233,0.7811743022643497,0.7105699855699855,0.6137530225257711,0.1445183257845877,0.1563002680965147
0.2059262576503956,0.2311780336581045,0.5320665083135393,0.8230690711126235,0.2789260600894949,0.3210936617331374,0.8061037639877925,0.7793575566087414,0.7069624819624819,0.6122682730242227,0.1523561723041341,0.1655942806076854
0.2150320943424391,0.2427731701425236,0.535391923990499,0.8117556992174209,0.2843596846366929,0.3303581516212857,0.8082836796977183,0.7803844128488678,0.7063131313131312,0.6151529291986596,0.1607722206161061,0.1766309204647006
0.2142110762800418,0.2339962959980674,0.5198733174980207,0.8168594760122492,0.2889409759215853,0.3187210484690995,0.8057840430170033,0.7778567667193259,0.7021284271284272,0.6109107877656641,0.1620892358099643,0.1791331546023235
0.2069711897298104,0.2129801111200579,0.4939034045922408,0.8320857434501531,0.292563392286384,0.2946559710767145,0.8015114082255487,0.7723538704581359,0.6929653679653679,0.5990327917532772,0.1574314991487584,0.1740393208221626
0.2033139274518584,0.198566712295676,0.4734758511480603,0.8417829193603267,0.2968250585979117,0.2772568071404361,0.7992152303444267,0.7694839389152186,0.6879148629148628,0.5932210579900735,0.1550865696572548,0.1705987488829312
0.2142110762800418,0.2037201062887511,0.460332541567696,0.8327662470227969,0.3090773492435542,0.2762399728844198,0.8014823426827496,0.7723538704581359,0.6920995670995671,0.5983540491239978,0.1600655295364748,0.1772564789991063
0.215778474399164,0.2078267171269828,0.4650831353919241,0.8297039809459,0.3085446409546132,0.280872217828494,0.8060456329021944,0.7765402843601895,0.6961760461760461,0.6034021974292624,0.1660081590697375,0.1835567470956211
0.2127929541722645,0.2083903695949754,0.4725257323832147,0.8311500510377681,0.3039633496697208,0.283809739012541,0.8041273070774597,0.7754081095313323,0.6953823953823954,0.6023840834853434,0.1673251742635957,0.1823949955317247
0.2084639498432601,0.2004992350430791,0.4661916072842439,0.8377849608710446,0.3030044747496271,0.276126991300418,0.7992442958872257,0.7702738283307003,0.6892135642135642,0.5946633860772919,0.1618643795573544,0.1729669347631814
0.2057023436333781,0.2008213221676463,0.4728424386381631,0.8391459680163322,0.2987428084380993,0.2787255677324596,0.7987792472024415,0.7695892575039494,0.6887445887445888,0.5944512790056421,0.1594873277440493,0.1680518319928507
0.2088371398716226,0.2065383686287141,0.4772763262074426,0.8343824430078258,0.2994886000426167,0.2842616653485481,0.8003487865135881,0.7728278041074249,0.6930735930735931,0.600093327111526,0.1615752786611416,0.1698391420911528
0.2132407822062994,0.2079877606892664,0.4707838479809976,0.8310649880911877,0.3048156829320264,0.2829058863405265,0.8031681441650923,0.7763559768299104,0.6974386724386724,0.60556568956009,0.1644984099450708,0.1752457551385165
0.2081653978205702,0.2009823657299299,0.4679334916864608,0.8376998979244641,0.3021521414873215,0.2770308439724325,0.8044179625054498,0.7783833596629804,0.6989177489177488,0.6063716964323591,0.1633741286820211,0.1748882931188561
0.2049559635766532,0.193735405427168,0.4601741884402217,0.8433140523987751,0.3024717664606861,0.2692351146763078,0.7996802790292109,0.7749605055292259,0.6946248196248196,0.6010690196411149,0.1579775786193826,0.1689008042895442
0.2021197193610986,0.1867300104678315,0.4525732383214569,0.8486730180333447,0.3030044747496271,0.2615523669641848,0.7995640168580148,0.7742496050552922,0.6943362193362193,0.5987358418529675,0.1578490893321769,0.1684539767649687
0.2086878638602776,0.1947821885820114,0.4544734758511481,0.8406771010547806,0.3070530577455785,0.267879335668286,0.8035169306786805,0.7779094260136914,0.698051948051948,0.6022143978280237,0.163438373325624,0.1763628239499553
0.2101059859680549,0.1977614944842579,0.4573238321456849,0.8382953385505274,0.3071595994033667,0.2709298384363348,0.8063362883301846,0.7805423907319642,0.7023809523809524,0.6091290883638062,0.1677427644470142,0.1815907059874888
0.2041349455142558,0.1920444480231903,0.4587490102929534,0.8447601224906431,0.3023652248028979,0.2675403909162806,0.8062781572445865,0.7805423907319642,0.7033549783549783,0.6104441522080347,0.166811217114773,0.1789097408400357
0.1991341991341991,0.1811740075690474,0.4481393507521774,0.8533514800952705,0.3023652248028979,0.2560162693480962,0.8031681441650923,0.7761453396524487,0.6980880230880231,0.6048869469308107,0.161832257235553,0.170911528150134
0.1921182266009852,0.1722360898623078,0.4452889944576406,0.8620279006464785,0.2983166418069465,0.2487854479719805,0.7986048539456474,0.773407056345445,0.6932900432900432,0.6011114410554448,0.1585557804118081,0.1662198391420911
0.1993581131512165,0.1834286174410177,0.4520981789390341,0.8519904729499831,0.3011932665672277,0.259066772116145,0.802383374509519,0.7767509215376514,0.6975829725829725,0.6035718830865822,0.161221933121326,0.1703753351206434
0.209807433945365,0.1927691440534664,0.4481393507521774,0.8411024157876831,0.3099296825058598,0.2642639249802281,0.804883011190234,0.7803054239073196,0.7023809523809524,0.6089594027064863,0.1650444894156949,0.1747542448614834
0.2039110314972383,0.1864884451244061,0.4482977038796517,0.8478223885675401,0.3057745578521202,0.2598576432041576,0.804883011190234,0.7790416008425487,0.699062049062049,0.6060323251177195,0.1620892358099643,0.170911528150134
0.1955515748619196,0.1782752234479426,0.4498812351543943,0.8568390609050699,0.2992755167270402,0.2546604903400745,0.8004359831419852,0.7753554502369668,0.6948051948051948,0.6002205913545159,0.1570781536089428,0.1656836461126005
0.1931631586804,0.1764232224816813,0.4513064133016627,0.859220823409323,0.2970381419134881,0.2538696192520618,0.7983432640604563,0.7739336492890996,0.6902597402597402,0.5946633860772919,0.1531271080273682,0.1629133154602323
0.2033139274518584,0.1842338352524358,0.4451306413301663,0.8493535216059885,0.3063072661410611,0.2571460851881143,0.7998546722860049,0.7757503949447078,0.692063492063492,0.597251092351419,0.1564357071729144,0.1690795352993744
0.2080907598148977,0.1850390530638537,0.4365795724465558,0.8462061925825112,0.3125932239505646,0.2546604903400745,0.8019764569103328,0.7775408109531332,0.6948773448773449,0.6030628261146227,0.1614789116957374,0.1752904378909741
0.1980146290491118,0.1792414848216442,0.4465558194774348,0.8549676760802996,0.3020455998295333,0.2542085640040673,0.8017148670251417,0.777066877303844,0.694047619047619,0.6022992406566835,0.1625389483151842,0.1754244861483467
0.1958501268846096,0.1738465254851437,0.4406967537608868,0.859050697516162,0.3025783081184743,0.2483335216359733,0.7954076442377561,0.7711163770405477,0.6868686868686869,0.5947058074916218,0.1578490893321769,0.1706434316353887
0.1919689505896402,0.1704646106771881,0.4421219319081552,0.8630486560054441,0.2992755167270402,0.2464128347079426,0.7940706292690015,0.7694049499736703,0.6834776334776335,0.5900394519153269,0.1533840866017795,0.1667560321715817
0.2015226153157187,0.1856027055318463,0.4516231195566113,0.8496087104457299,0.3028979330918389,0.2604225511241668,0.7972969045196918,0.7716429699842022,0.6859307359307358,0.5924150511178043,0.1567569303909286,0.1717158176943699
0.2115987460815047,0.1975199291408326,0.4536817102137768,0.8376148349778837,0.3093969742169188,0.2695740594283131,0.7997384101148088,0.7742496050552922,0.6902958152958152,0.5966996139651296,0.1603546304326877,0.1752904378909741
0.2067472757127929,0.1907560995249215,0.4506730007917657,0.8439094930248384,0.3069465160877903,0.2636990170602191,0.7988083127452404,0.7744339125855713,0.6895021645021645,0.5942815933483223,0.158395168802801,0.1706881143878462
0.1965965069413345,0.176101135357114,0.4433887569279494,0.8574345015311331,0.3021521414873215,0.2508191164840131,0.7964540037785206,0.7702474986835176,0.6817821067821067,0.583548975522844,0.1521634383733256,0.1628239499553172
0.1935363487087625,0.1647475642161204,0.4275534441805226,0.8651752296699557,0.3052418495631792,0.2371483448197943,0.7946519401249819,0.7679041600842549,0.678138528138528,0.5787977771178892,0.149368796376602,0.1606791778373547
0.1974921630094044,0.1720750463000241,0.4335708630245448,0.859050697516162,0.3060941828254847,0.2444921477799118,0.797732887661677,0.7713270142180094,0.6817821067821067,0.5860518389683113,0.1555041598406732,0.1693476318141197
0.2100313479623824,0.1871326193735405,0.4365795724465558,0.8439094930248384,0.3139782655018112,0.256129250932098,0.800058131085598,0.7742496050552922,0.6848484848484848,0.5922453654604846,0.16199286884456,0.1780607685433422
0.2079414838035528,0.182140268942749,0.4311955661124307,0.8478223885675401,0.3142978904751757,0.2507061349000113,0.7972097078912949,0.7720642443391258,0.683044733044733,0.589021337971408,0.1605794866852976,0.176496872207328
0.2030153754291685,0.1715113938320315,0.4209026128266033,0.8562436202790066,0.3142978904751757,0.2395209580838323,0.7921232379014679,0.7676145339652448,0.676010101010101,0.5806643193484071,0.154412000899425,0.1682305630026809
0.1942080907598149,0.1719140027377405,0.4402216943784641,0.8610071452875128,0.3015128915405923,0.246751779459948,0.7916291236738846,0.7664296998420221,0.6741702741702741,0.5772281847876809,0.1523561723041341,0.1654155495978552
0.1998059411852515,0.182140268942749,0.448456057007126,0.8524157876828854,0.3027913914340507,0.2568071404361088,0.795320447609359,0.7686413902053713,0.6753968253968253,0.5801552623764477,0.1549902026918505,0.1689454870420018
0.2072697417525003,0.1904340124003543,0.449089469517023,0.8437393671316775,0.3079053910078841,0.2629081459722065,0.797616625490481,0.7719589257503949,0.6797979797979797,0.5867730030119205,0.1605473643634962,0.1745308310991957
0.2057023436333781,0.1876962718415331,0.4468725257323832,0.8461211296359308,0.3074792243767312,0.2601965879561631,0.7962505449789276,0.771274354923644,0.6786435786435786,0.5846095108810928,0.1598085509620635,0.1729222520107238
0.1947305567995223,0.1751348739834125,0.4454473475851149,0.8589656345695815,0.3001278499893458,0.2509320980680148,0.7936927772126144,0.7671406003159558,0.6717171717171717,0.5757858567004625,0.1545083678648292,0.1672028596961572
0.1942080907598149,0.1723971334245913,0.4411718131433096,0.8607519564477714,0.3011932665672277,0.2474296689639588,0.7900595843627379,0.7642180094786729,0.6665584415584416,0.5693802231366395,0.1520991937297227,0.1655049151027703
0.2007762352589938,0.1844754005958611,0.4509897070467142,0.8506294658046956,0.3025783081184743,0.2594057168681505,0.7931695974422321,0.7678778304370721,0.6726911976911977,0.5765918635727316,0.1558575053804889,0.1702412868632707
0.2053291536050156,0.1868910540301151,0.4460807600950119,0.846716570261994,0.3074792243767312,0.2594057168681505,0.7966574625781137,0.7716956292785676,0.6775613275613275,0.5825732829932551,0.1586842696990138,0.1745308310991957
0.1937602627257799,0.1746517432965617,0.4463974663499605,0.8598162640353861,0.2990624334114639,0.2508191164840131,0.795146054352565,0.7684307530279094,0.6738095238095237,0.5776099775166504,0.1545726125084321,0.1689008042895442
0.183684131959994,0.1621708672195829,0.4433887569279494,0.8721503912895543,0.2929895589175367,0.2409897186758558,0.7910187472751053,0.7647182727751448,0.6682900432900433,0.5711619225384975,0.1499469981690276,0.1626005361930294
0.1858486341244962,0.1642644335292697,0.4429136975455265,0.8698536917318815,0.2946942254421479,0.2423454976838775,0.7895364045923557,0.7642180094786729,0.6680014430014429,0.5709498154668476,0.1502682213870418,0.1633601429848078
0.1976414390207493,0.1735244383605765,0.4361045130641331,0.8582000680503574,0.3053483912209674,0.2464128347079426,0.7935474494986194,0.7661664033701948,0.670959595959596,0.5741738429559242,0.1536410651761909,0.1693029490616621
0.2006269592476489,0.1726386987680167,0.4280285035629455,0.8569241238516503,0.3101427658214362,0.2429104056038865,0.7967737247493097,0.7695102685624012,0.6762265512265513,0.579858312476138,0.1576563554013684,0.1740393208221626
0.1955515748619196,0.1670021740880908,0.4277117973079969,0.8628785301122832,0.3066268911144257,0.2388430685798215,0.7956692341229472,0.7697735650342284,0.6761544011544011,0.5796886268188183,0.1591661045260351,0.1743074173369079
0.1945812807881773,0.1620903454384411,0.420110847189232,0.8660258591357605,0.3085446409546132,0.2327420630437238,0.7907862229327133,0.7647446024223274,0.6685064935064934,0.5702286514232385,0.153801676785198,0.1670688114387846
0.1930885206747275,0.1611240840647395,0.4213776722090261,0.867386866281048,0.3070530577455785,0.2324031182917184,0.7884900450515914,0.7625329120589784,0.6661976911976912,0.5670470453484919,0.1508464231794674,0.1634495084897229
0.1974921630094044,0.1744101779531363,0.4381631037212986,0.8577747533174549,0.30460259961645,0.2477686137159643,0.7915128615026886,0.7664296998420221,0.671969696969697,0.574258685784584,0.1542513892904179,0.1683646112600536
0.2081653978205702,0.1910781866494887,0.4482977038796517,0.8429738006124533,0.3087577242701896,0.2630211275562083,0.7949716610957709,0.7692733017377568,0.6747835497835497,0.5783735629745896,0.1575599884359641,0.1722966934763181
0.196521868935662,0.182542877848458,0.456215360253365,0.8541170466144947,0.2977839335180055,0.2598576432041576,0.7938962360122075,0.7677461822011584,0.6708513708513708,0.5746828999278837,0.1559538723458931,0.1712243074173369
0.1921928646066577,0.1699009582091956,0.4405384006334125,0.8632187818986051,0.2999147666737694,0.2453960004519263,0.7910187472751053,0.7640600315955766,0.6664141414141413,0.5689560089933399,0.1532877196363753,0.168319928507596
0.1955515748619196,0.1653917384652548,0.4245447347585115,0.8636440966315074,0.3077988493500959,0.2365834368997853,0.7903211742479291,0.7633491311216429,0.6653318903318903,0.5663683027192128,0.1521634383733256,0.1664879356568364
0.2039856695029109,0.1730413076737257,0.4216943784639748,0.8547975501871384,0.3147240571063285,0.2409897186758558,0.7943612846969916,0.767114270668773,0.6715007215007214,0.5740041572986044,0.1563714625293116,0.1720285969615728
0.2028660994178235,0.1716724373943151,0.4212193190815519,0.8561585573324262,0.3140848071595994,0.239746921251836,0.7974131666908879,0.7708530805687203,0.6764069264069263,0.5797310482331481,0.1602261411454819,0.1761840929401251
0.1968950589640244,0.1616072147515903,0.4142517814726841,0.8649200408302145,0.3121670573194118,0.230256468195684,0.795146054352565,0.7688256977356503,0.6726190476190477,0.575319221142833,0.1578490893321769,0.1718945487042001
0.1874906702492909,0.1508172960785892,0.41298495645289,0.8759782238856755,0.3058810995099083,0.2222347757315557,0.7906990263043162,0.7647182727751448,0.6674242424242424,0.5678530522207611,0.153191352670971,0.1661751563896336
0.1856993581131512,0.1498510347048876,0.4148851939825811,0.877509356924124,0.3039633496697208,0.2222347757315557,0.7902630431623311,0.7625065824117957,0.6642135642135643,0.5634412251304459,0.1497221419164177,0.1634495084897229
0.1926406926406926,0.1609630405024559,0.4220110847189232,0.8677271180673699,0.3065203494566376,0.232629081459722,0.792501089957855,0.7657714586624539,0.6676406926406926,0.5692529588936496,0.1535446982107866,0.1681858802502234
0.1987610091058367,0.1694983493034866,0.4258115597783057,0.8597312010888057,0.3096100575324951,0.2398599028358377,0.7939543670978056,0.7677198525539758,0.6718614718614719,0.5749374284138633,0.15701390896534,0.1727882037533512
0.1947305567995223,0.1647475642161204,0.4251781472684086,0.864494726097312,0.3069465160877903,0.2363574737317817,0.7940124981834036,0.767403896787783,0.6707070707070707,0.5716709795104569,0.1552150589444605,0.170420017873101
0.1866696521868935,0.1540381673242612,0.4210609659540776,0.8747022796869685,0.3025783081184743,0.2274319285956388,0.7907280918471153,0.7639547130068457,0.66504329004329,0.5650108174606542,0.1509427901448717,0.1638069705093833
0.1862218241528586,0.153313471293985,0.4205859065716549,0.8753827832596122,0.3024717664606861,0.2266410575076262,0.7895945356779538,0.763059505002633,0.6647546897546897,0.5654350316039537,0.1531271080273682,0.1665773011617515
0.1974921630094044,0.1620098236572993,0.4139350752177356,0.8643246002041511,0.3126997656083529,0.2304824313636877,0.7945066124109867,0.7671406003159558,0.6698051948051947,0.5712043439528275,0.1585236580900067,0.1744861483467381
0.1985370950888192,0.1632176503744263,0.4139350752177356,0.8631337189520245,0.3134455572128702,0.2312733024517003,0.7977910187472751,0.7697472353870458,0.6731240981240981,0.5756585924574725,0.1605794866852976,0.1786416443252904
0.1939095387371249,0.1578226910379257,0.4131433095803642,0.8685777475331746,0.3104623907948007,0.2272059654276353,0.7941868914401976,0.7676145339652448,0.6705627705627706,0.5731557290120053,0.1577848446885741,0.1752457551385165
0.1866696521868935,0.1496899911426041,0.4123515439429929,0.8769989792446411,0.3054549328787556,0.2212179414755395,0.7897689289347478,0.7627172195892575,0.6643217893217893,0.5656047172612736,0.1525489062349426,0.168319928507596
0.187042842215256,0.1533939930751268,0.4190023752969121,0.8748724055801292,0.3035371830385681,0.226189131171619,0.7891004214503706,0.7617430226434966,0.6622655122655122,0.5644169176600349,0.1502360990652404,0.1648793565683646
0.1957008508732647,0.1668411305258072,0.4270783847980998,0.8627934671657026,0.3070530577455785,0.238504123827816,0.7921813689870658,0.7655871511321748,0.6677849927849927,0.5700589657659186,0.1539944107160065,0.1695263628239499
0.2068219137184654,0.1751348739834125,0.4197941409342836,0.8520755358965635,0.3173875985510334,0.2416676081798666,0.7948263333817759,0.7696155871511321,0.6733044733044733,0.575276799728503,0.1578812116539783,0.1748436103663985
0.1992834751455441,0.1686126097109268,0.4229612034837688,0.8598162640353861,0.3108885574259535,0.2382781606598125,0.7939543670978056,0.7674302264349657,0.6708874458874459,0.5726466720400458,0.1557290160932832,0.1724754244861483
0.1848037020450813,0.1580642563813512,0.4329374505146477,0.8736815243280028,0.2972512252290645,0.234436786803751,0.7904665019619241,0.762664560294892,0.665945165945166,0.5664955669622026,0.1507821785358646,0.1667560321715817
0.1890580683684132,0.1601578226910379,0.4280285035629455,0.8701088805716231,0.3019390581717451,0.2342108236357473,0.7891294869931695,0.7606108478146393,0.6637806637806637,0.5640351249310652,0.148983328514985,0.164834673815907
0.196521868935662,0.1675658265560834,0.4267616785431513,0.8620279006464785,0.3076923076923076,0.2388430685798215,0.7935765150414184,0.7649552395997893,0.6683982683982683,0.5698468586942689,0.1530949857055668,0.1702859696157283
0.1986117330944917,0.1652306949029712,0.4175771971496438,0.8620279006464785,0.3122735989772001,0.2339848604677437,0.7974131666908879,0.7691679831490258,0.6727633477633477,0.574258685784584,0.1562108509203045,0.1741286863270777
0.1939095387371249,0.1595136484419035,0.4164687252573239,0.8677271180673699,0.3092904325591306,0.2295785786916732,0.7948844644673739,0.7662190626645603,0.6694083694083693,0.5699317015229288,0.1556005268060775,0.173100983020554
0.1874160322436184,0.1494484257991787,0.4104513064133018,0.8767437904048997,0.3067334327722139,0.2204270703875268,0.7893910768783607,0.7611637704054766,0.6629870129870129,0.5619140542145675,0.1521313160515242,0.1672028596961572
0.1851768920734437,0.15130042676544,0.4188440221694378,0.8770840421912216,0.3022586831451097,0.2246073889955937,0.7892748147071647,0.7615850447604002,0.6641774891774892,0.5638654392737454,0.1530307410619639,0.166532618409294
0.1954769368562471,0.1644254770915533,0.4228028503562946,0.8642395372575707,0.3082250159812486,0.2353406394757654,0.7924429588722569,0.7649815692469721,0.6695526695526696,0.5694650659652993,0.1590376152388294,0.173100983020554
0.1987610091058367,0.1672437394315162,0.4213776722090261,0.860837019394352,0.3111016407415299,0.2366964184837871,0.7949716610957709,0.7669562927856767,0.6730880230880231,0.5740041572986044,0.1637274742218367,0.1799374441465594
0.1942827287654873,0.1575006039133586,0.4117181314330958,0.8685777475331746,0.3111016407415299,0.2265280759236244,0.7931114663566342,0.7656924697209058,0.6700937950937951,0.5715012938531371,0.1616395233047444,0.1783288650580875
0.1834602179429765,0.1463080763346485,0.4126682501979414,0.8806566859476013,0.3031110164074153,0.2189583097955033,0.7893038802499637,0.7617956819378621,0.6648268398268399,0.5636957536164257,0.1543798785776235,0.1681411974977658
0.1865203761755486,0.1481600773009098,0.4098178939034046,0.8779346716570263,0.3063072661410611,0.2191842729635069,0.790146780991135,0.7626119010005266,0.6655844155844156,0.5610232045136385,0.150589444605056,0.1632707774798927
0.1974921630094044,0.1601578226910379,0.4101346001583532,0.8653453555631168,0.3139782655018112,0.2277708733476443,0.7934311873274233,0.7655871511321748,0.6695526695526696,0.5665804097908625,0.1537695544633966,0.167024128686327
0.1951783848335572,0.1634592157178516,0.4215360253365005,0.8649200408302145,0.308438099296825,0.2342108236357473,0.7965702659497167,0.7685624012638231,0.6733766233766234,0.5711195011241675,0.1573351321833542,0.1728328865058087
0.1909986565158979,0.156534342539657,0.4169437846397467,0.8709595100374278,0.3070530577455785,0.2276578917636425,0.7936637116698154,0.7652185360716166,0.6685786435786436,0.5670470453484919,0.154412000899425,0.1710902591599642
0.1827138378862516,0.1475964248329173,0.4167854315122724,0.8804014971078599,0.3011932665672277,0.2213309230595412,0.7894201424211597,0.7614270668773039,0.6624098124098123,0.561489840071268,0.1515531142590986,0.1680071492403932
0.1884609643230332,0.1519446010145744,0.4131433095803642,0.8747873426335488,0.3065203494566376,0.2231386284035702,0.7883447173375963,0.7607424960505529,0.662121212121212,0.5612777329996183,0.1518743374771128,0.1693476318141197
0.1970443349753694,0.1619293018761574,0.4145684877276327,0.864664851990473,0.3121670573194118,0.2305954129476895,0.7922976311582619,0.7648235913638757,0.6673520923520924,0.5663683027192128,0.1567569303909286,0.1753351206434316
0.2027168234064786,0.1679684354617924,0.4144101346001584,0.8582000680503574,0.3163221819731515,0.2347757315557563,0.7947972678389769,0.7678515007898894,0.6726190476190477,0.5733678360836552,0.1613504224085316,0.1803395889186773
0.1926406926406926,0.1579032128190675,0.415993665874901,0.8692582511058183,0.3085446409546132,0.2282227996836515,0.792559221043453,0.7660084254870985,0.6700937950937951,0.5701862300089086,0.1574314991487584,0.1760053619302949
0.1824899238692342,0.1467106852403575,0.4155186064924783,0.8809969377339232,0.3014063498828042,0.220314088803525,0.7885191105943903,0.7618746708794102,0.6629870129870129,0.5619988970432275,0.1514246249718929,0.1675156389633601
0.1891327063740856,0.1552459940413882,0.4182106096595408,0.8726607689690372,0.3053483912209674,0.2272059654276353,0.7887807004795815,0.7619010005265929,0.6634199134199134,0.5614049972426081,0.1514888696154958,0.1662198391420911
0.2051052395879982,0.1726386987680167,0.4183689627870151,0.8543722354542362,0.316641806946516,0.2394079764998305,0.792617352129051,0.7654028436018957,0.6687950937950937,0.5677257879777712,0.1561144839549002,0.1717605004468275
0.2107777280191073,0.179322006602786,0.4197941409342836,0.8476522626743791,0.3202642233113147,0.2446051293639136,0.794942595552972,0.7691679831490258,0.6731962481962481,0.5731981504263353,0.1595194500658507,0.1771671134941912
0.2002537692192864,0.1649086077784041,0.4134600158353128,0.8612623341272543,0.3148305987641168,0.2322901367077166,0.7939543670978056,0.7678515007898894,0.6718253968253968,0.5708649726381878,0.1556005268060775,0.1737712243074173
0.190103000447828,0.1475159030517755,0.40110847189232,0.8762334127254168,0.311740890688259,0.2156818438594508,0.7931986629850313,0.7664823591363875,0.6698773448773447,0.5675561023204514,0.1516494812245029,0.1689454870420018
0.1951783848335572,0.1439729446815363,0.3832145684877277,0.8752126573664512,0.3213296398891966,0.2068692803073099,0.7967446592065107,0.769826224328594,0.6736291486291487,0.5699317015229288,0.1542192669686165,0.1707327971403038
0.2096581579340199,0.1510588614220146,0.3665874901029296,0.8632187818986051,0.3373108885574259,0.2058524460512936,0.8036041273070774,0.7764612954186414,0.6812049062049061,0.578882619946549,0.1598406732838649,0.1780607685433422
0.2163755784445439,0.1450197278363797,0.3403008709422011,0.8626233412725418,0.3509482207543149,0.1922946559710767,0.8087196628397035,0.7809110057925224,0.6870851370851371,0.5852458320960421,0.1633098840384183,0.183467381590706
0.2132407822062994,0.1313310250422739,0.3200316706254949,0.8715549506634911,0.3555295120392073,0.1754603999548074,0.807498910042145,0.7807266982622433,0.687049062049062,0.5849064607814025,0.1621213581317657,0.1831992850759607
0.2124944021495745,0.1143409292213544,0.288202692003167,0.8809969377339232,0.3656509695290859,0.1520732120664332,0.8038075861066706,0.7779884149552395,0.6816378066378067,0.5768039706443814,0.1573030098615528,0.1761840929401251
0.2280191073294521,0.111281101537966,0.2492478226444972,0.8737665872745832,0.3898359258470061,0.1361428087221783,0.8015695393111466,0.778909952606635,0.680952380952381,0.5750646926568532,0.1581381902283897,0.1764075067024128
0.2433198984923122,0.1055640550768982,0.2055423594615993,0.8680673698536918,0.4155124653739612,0.1164840131058637,0.802441505595117,0.7805423907319642,0.6815656565656565,0.5760828066007722,0.1604188750762905,0.1791331546023235
0.2486938349007314,0.0979144858684274,0.1790973871733966,0.8690881252126574,0.4281909226507564,0.1016834256016269,0.8040110449062636,0.779199578725645,0.6777777777777777,0.5713316081958173,0.1586521473772124,0.1785522788203753
0.2367517539931333,0.0851115226668813,0.1792557403008709,0.8826131337189521,0.4196675900277008,0.0927578804654841,0.8003197209707891,0.773986308583465,0.6707792207792207,0.5618716328002377,0.1537053098197937,0.1737265415549597
0.2313778175847141,0.0806828247040824,0.1817893903404592,0.8880571623001021,0.4149797570850202,0.0906112303694497,0.7959598895509374,0.7699578725645075,0.6655122655122654,0.5558902133797141,0.1496578972728149,0.1685433422698838
0.2408568443051201,0.0938078750301956,0.1876484560570071,0.8757230350459341,0.419774131685489,0.1017964071856287,0.7956401685801483,0.7705634544497104,0.6678571428571429,0.5585203410681713,0.1516173589027015,0.1711349419124218
0.2498880429914912,0.1138577985345036,0.2080760095011876,0.8599013269819668,0.4193479650543362,0.1232629081459722,0.7956111030373492,0.7711427066877303,0.6722943722943723,0.5658592457472533,0.1573351321833542,0.1781948168007149
0.2551873413942379,0.1292374587325871,0.2269200316706255,0.8488431439265057,0.4167909652674195,0.1406620720822505,0.7937509082982125,0.7716956292785676,0.6764069264069263,0.5735375217409748,0.1623462143843757,0.1840035746201966
0.2551873413942379,0.1366454625976326,0.2416468725257323,0.8449302483838041,0.4117835073513743,0.1511693593944187,0.7893329457927626,0.7707740916271721,0.6753246753246753,0.5751919568998431,0.1606758536507018,0.18047363717605
0.2514554411106135,0.1396247684998792,0.2552652414885194,0.8454406260632868,0.4046452162795653,0.1580612360185289,0.7850893765441069,0.7687730384412849,0.6724747474747474,0.5733678360836552,0.15678905271273,0.1730563002680965
0.2607105538140021,0.1502536436105966,0.2565320665083135,0.8345525689009868,0.4108246324312806,0.1660829284826573,0.7844208690597296,0.769431279620853,0.6733405483405484,0.5733254146693251,0.1573351321833542,0.1742180518319928
0.2768323630392595,0.1654722602463967,0.2522565320665083,0.8173698536917319,0.4237161730236522,0.1752344367868037,0.7858450806568813,0.7729067930489731,0.6772005772005771,0.5782887201459297,0.1622819697407728,0.1831099195710455
0.2754142409314823,0.170142523552621,0.2644497228820269,0.8156685947601225,0.4186021734498188,0.1828042029149249,0.7861938671704694,0.7734597156398104,0.6777777777777777,0.5797734696474781,0.1650766117374963,0.1880697050938337
0.2654873861770414,0.1703035671149045,0.2858273950910531,0.8211976862878531,0.4043255913062007,0.1904869506270477,0.78000290655428,0.767114270668773,0.6699134199134199,0.571586136681797,0.1618643795573544,0.1847184986595174
0.2507090610538886,0.1687736532732104,0.3141726049089469,0.8304695474651244,0.38429575964202,0.1995254773471924,0.775178026449644,0.7597156398104264,0.6612193362193363,0.5639078606880754,0.1590697375606309,0.1814119749776586
0.248171368861024,0.1768258313873903,0.3353919239904988,0.8276624702279687,0.3752397187300234,0.2128573042594057,0.7772707455311728,0.7612427593470248,0.663131313131313,0.5670894667628219,0.1617680125919501,0.183467381590706
0.2531721152410807,0.1935743618648844,0.3577197149643705,0.8160088465464445,0.3712976773918602,0.2325160998757202,0.7833163784333672,0.7672985781990521,0.6716810966810967,0.5776948203453104,0.1672288072981915,0.1888739946380697
0.2402597402597402,0.1982446251711087,0.3942992874109264,0.8208574345015313,0.3497762625186447,0.2487854479719805,0.7876762098532191,0.7705107951553449,0.676984126984127,0.5838883468374836,0.1696058591114966,0.1908400357462019
0.2300343334826093,0.1856027055318463,0.391132224861441,0.8333616876488602,0.3435968463669294,0.2388430685798215,0.7832291818049703,0.7670089520800422,0.6718253968253968,0.5759131209434523,0.1639523304744467,0.1832439678284182
0.2220480668756531,0.1723971334245913,0.3821060965954078,0.8448451854372236,0.3409333049222245,0.2263021127556208,0.7812236593518385,0.7644549763033176,0.6670995670995671,0.5677682093921013,0.1585879027336096,0.1756032171581769
0.2165994924615614,0.17054513245833,0.3900237529691212,0.8490132698196666,0.3344342637971446,0.2278838549316461,0.7833163784333672,0.7658504476040021,0.668975468975469,0.5695499087939592,0.1591661045260351,0.1760500446827524
0.2127929541722645,0.1716724373943151,0.4003167062549485,0.8505444028581152,0.3282548476454293,0.2324031182917184,0.7881412585380032,0.7688256977356503,0.6733044733044733,0.5758706995291224,0.1628601715331984,0.1816353887399464
0.2077922077922077,0.165713825589822,0.3992082343626286,0.8565838720653284,0.3249520562539952,0.2277708733476443,0.7909024851039094,0.7690363349131121,0.6751082251082251,0.57803419165995,0.1639523304744467,0.1836907953529937
0.1947305567995223,0.1534745148562686,0.4028503562945369,0.8704491323579449,0.3144044321329639,0.2204270703875268,0.7887225693939834,0.7667456556082148,0.6697691197691197,0.5705256013235481,0.1585557804118081,0.1768990169794459
0.1815942678011643,0.1411546823415734,0.4064924782264449,0.8844845185437225,0.3038568080119326,0.2131962490114111,0.7845952623165238,0.7632701421800948,0.6643217893217893,0.5643320748313749,0.1524846615913398,0.1695263628239499
0.1855500821018062,0.1462275545535067,0.4080760095011877,0.8795508676420553,0.3062007244832729,0.2172635860354762,0.7854672286004941,0.7624275934702475,0.6645021645021644,0.5666228312051924,0.1524846615913398,0.170509383378016
0.2017465293327362,0.1636202592801352,0.4079176563737134,0.8610922082340933,0.317707223524398,0.2293526155236696,0.7878506031100131,0.7670879410215903,0.6713203463203463,0.5757010138718025,0.1585557804118081,0.1785522788203753
0.2039856695029109,0.1676463483372252,0.4110847189231988,0.8576896903708745,0.3183464734711272,0.2333069709637328,0.7882284551664002,0.7689046866771985,0.6753968253968253,0.5816824332923259,0.1624747036715814,0.1827971403038427
0.2005523212419764,0.1627345196875755,0.4087094220110847,0.8621980265396393,0.316641806946516,0.229126652355666,0.7837523615753524,0.7660347551342812,0.6751443001443,0.5826581258219149,0.1624747036715814,0.1811885612153708
0.2010747872816838,0.1585473870682019,0.3993665874901029,0.8641544743109901,0.3201576816535265,0.2227996836515647,0.7773579421595698,0.7655871511321748,0.681060606060606,0.588045645441819,0.1623783367061771,0.1791331546023235
0.2185400806090461,0.1679684354617924,0.3808392715756136,0.8491833957128276,0.3389090134242488,0.2227996836515647,0.7761371893620113,0.7773828330700369,0.7064574314574315,0.6157892504136089,0.1714047091323761,0.1848078641644325
0.2456336766681593,0.179322006602786,0.3456848772763262,0.8277475331745492,0.3700191774984018,0.2182804202914925,0.7720389478273507,0.7845708267509215,0.7305916305916306,0.6561320154413949,0.1875943593202916,0.1986148346738159
0.2672040603075086,0.2054110636927289,0.3512272367379256,0.8017182715209255,0.3835499680375026,0.238504123827816,0.7473623019909897,0.7537124802527646,0.719011544011544,0.694523395410003,0.2139025408756545,0.2221626452189455
0.2748171368861024,0.2420484741122473,0.4071258907363421,0.7779857094249745,0.3702322608139782,0.2841486837645463,0.6946955384391803,0.6726961558715113,0.657070707070707,0.7190853943070463,0.2495904403970319,0.2510723860589812
0.3022092849679056,0.304613898059425,0.4720506730007918,0.7294147669275264,0.3678883443426379,0.3512597446616201,0.6129632320883592,0.5623222748815166,0.5611832611832611,0.7364357527679974,0.3044553660338569,0.2970509383378016
0.3638602776533811,0.4073596907963604,0.5433095803642123,0.640013610071453,0.3879181760068186,0.4486498700711784,0.51852928353437,0.4617693522906793,0.4816378066378066,0.790013999066729,0.3949439465484565,0.3762734584450402
0.4434990297059262,0.527256622916499,0.6099762470308789,0.5313031643416128,0.4223311314724056,0.5566602643769065,0.4255486121203313,0.3725381779884149,0.3985569985569985,0.8334111059262717,0.5031961710192412,0.4776139410187667
0.525675473951336,0.6457041629760849,0.6688836104513065,0.4219122150391289,0.4612188365650969,0.6607163032425714,0.3048394128760354,0.2562664560294891,0.2669913419913419,0.823993551945022,0.6163952330474447,0.5919124218051831
0.6183758769965667,0.7587567436991707,0.6943784639746635,0.3092888737665873,0.5187513317707223,0.7491808835159869,0.1822118878070047,0.1427593470247498,0.1357503607503607,0.8116489203750052,0.7481609970768687,0.7210455764075067
0.7353336318853562,0.8468475722682985,0.6193190815518608,0.1961551548145628,0.6275303643724697,0.7842051745565471,0.0948408661531753,0.090521327014218,0.0799062049062049,0.8341322699698809,0.8817256111271722,0.8504468275245756
0.8332586953276608,0.869957323455995,0.4571654790182106,0.1281047975501872,0.7519710206690816,0.7425149700598802,0.0781863101293416,0.1109268035808319,0.0901875901875901,0.8310779281381241,0.9509170922874304,0.9320375335120644
0.8674429019256605,0.8422578307432161,0.330166270783848,0.1232562095951004,0.8190922650756446,0.6777765224268443,0.1178607760499927,0.1580832016850974,0.0915223665223665,0.7118737538709542,0.9165462079599114,0.9422698838248436
0.8336318853560233,0.7571463080763348,0.234362628661916,0.1874787342633548,0.8270828894097592,0.5838888261213421,0.1823572155209998,0.2097156398104265,0.0676406926406927,0.4847495015483817,0.7805402974526998,0.8801608579088471
0.7666069562621287,0.6574603430227876,0.1806809184481393,0.2784110241578768,0.7973577668868527,0.4948593379279177,0.2609795087923266,0.2668773038441284,0.0581529581529581,0.2690790310948967,0.632263660017346,0.7950402144772117
0.707045827735483,0.576052822288429,0.1469517022961203,0.3553079278666213,0.7662476028126998,0.4256016269348096,0.3368987065833453,0.3340968931016324,0.0883116883116882,0.1298943706783183,0.5085605987600783,0.7134495084897229
0.6386027765338109,0.5494001127304936,0.2397466349960411,0.4083872065328343,0.6861282761559769,0.4400632696870409,0.4141258538003197,0.4023433385992627,0.1544372294372294,0.1112289483731387,0.4154058655359609,0.6388293118856122
0.5622480967308553,0.5250825348256704,0.3540775930324624,0.4646988771691052,0.5932239505646708,0.4637894023274206,0.4871675628542363,0.4643759873617693,0.2312409812409812,0.1564925974631994,0.3437409655969933,0.563851653261841
0.4649947753396029,0.467992591996135,0.4479809976247031,0.550357264375638,0.4922224589814617,0.4572364704553157,0.5589885191105944,0.5293838862559241,0.3222943722943723,0.2355661137742332,0.289004529247374,0.4834226988382483
0.3503507986266607,0.3900475078508737,0.5380839271575614,0.6568560734943859,0.3800340933304922,0.4346401536549542,0.6325824734776921,0.6010268562401264,0.4269119769119769,0.332965681075807,0.2377051813305065,0.3893655049151027
0.2615315718763994,0.323455994846606,0.5954077593032463,0.7425995236474991,0.2973577668868528,0.4084284261665348,0.6989681732306351,0.6710110584518167,0.5299062049062049,0.4321469477792389,0.1996402299958241,0.3029490616621984
0.2141364382743693,0.2563813511554876,0.5640538400633414,0.8050357264375638,0.274025143831238,0.3502429104056039,0.750821101584072,0.7250921537651396,0.606096681096681,0.5026937598099521,0.1673251742635957,0.2327524575513851
0.1945066427825048,0.2068604557532812,0.5083135391923991,0.84237835998639,0.2788195184317067,0.2955598237487289,0.787589013224822,0.7646392838335966,0.6601731601731602,0.5510965935604294,0.1494972856638078,0.1906166219839142
0.1856247201074787,0.1769063531685321,0.4682501979414094,0.8632187818986051,0.2859578095035158,0.260309569540165,0.8076442377561401,0.7856503422854134,0.6897546897546898,0.5773554490306707,0.1428800873727153,0.1720732797140303
0.1691297208538587,0.1494484257991787,0.4492478226444973,0.887121469887717,0.2806307266141061,0.2342108236357473,0.8153756721406772,0.7941284886782517,0.7016955266955266,0.5855427819963518,0.1354277087147859,0.1583109919571045
0.1574861919689505,0.1318141557291247,0.4394299287410927,0.9031133038448452,0.2755167270402727,0.2183934018754942,0.8202296177881122,0.7990521327014218,0.7093434343434343,0.5891486022143979,0.1295172015033246,0.1469615728328865
0.1608449022242125,0.1289958933891618,0.426603325415677,0.9026879891119428,0.2823353931387172,0.2118404700033894,0.8262752506903066,0.8046340179041601,0.7171717171717172,0.5958511856785306,0.1289389997108991,0.1434763181411975
0.1666666666666666,0.1321362428536919,0.4204275534441806,0.8976692752636952,0.2885148092904325,0.2118404700033894,0.834442668216829,0.8139020537124803,0.7306637806637807,0.609256352606796,0.1338858372683177,0.146514745308311
0.167338408717719,0.1306063290119977,0.415993665874901,0.8981796529431779,0.2904325591306201,0.209128911987346,0.8391803516930678,0.818957345971564,0.7368686868686868,0.6161286217282484,0.1348495069223603,0.1468722073279714
0.1548738617704134,0.1189306707464369,0.419477434679335,0.9113644096631508,0.2804176432985297,0.2022370353632357,0.8380758610667054,0.8182464454976304,0.7387085137085136,0.6166801001145379,0.1304487488355658,0.1405272564789991
0.1483057172712345,0.1111200579756824,0.4180522565320665,0.9192752636951346,0.27626251864479,0.1962490114111399,0.837174829239936,0.8176671932596103,0.738997113997114,0.6152801934416494,0.1269795380810125,0.1346738159070598
0.1518137035378414,0.1145019727836379,0.4172604908946952,0.9155324940455938,0.2789260600894949,0.1982826799231725,0.8398779247202441,0.8205371248025277,0.741955266955267,0.6176133712297969,0.1270116604028139,0.1337354781054513
0.1561427078668458,0.122473629116676,0.4237529691211402,0.9088125212657366,0.2798849350095887,0.206191390803299,0.8457200988228455,0.8252764612954185,0.7486291486291485,0.6255885971238282,0.129388712216119,0.1363717605004468
0.1580832960143305,0.1231178033658104,0.4210609659540776,0.9073664511738688,0.282228851480929,0.20562648288329,0.8476965557331783,0.8282780410742496,0.7537157287157288,0.6306367454290926,0.1305772381227715,0.1386058981233244
0.1526347216002388,0.1158708430630485,0.4182106096595408,0.9142565498468868,0.2792456850628595,0.1996384589311942,0.8459235576224385,0.8268035808320169,0.7527777777777778,0.6262249183387775,0.1261122353923741,0.13485254691689
0.1451709210329899,0.1103148401642644,0.4231195566112431,0.9214869003062268,0.2723204773066269,0.1974918088351598,0.8441214939688999,0.8246182201158504,0.7500721500721501,0.6227463623637213,0.1223860460634094,0.1302055406613047
0.1498731153903567,0.1157097995007649,0.4237529691211402,0.915957808778496,0.2754101853824846,0.2014461642752231,0.8465048684784188,0.8267509215376513,0.7536796536796536,0.6268188181393968,0.1234460826828563,0.1309651474530831
0.1581579340200029,0.1260971092680569,0.426603325415677,0.9057502551888398,0.2803111016407414,0.2098068014913569,0.8506903066414765,0.8317798841495524,0.761038961038961,0.6347516226190981,0.1281359416658636,0.1367739052725647
0.158008658008658,0.1279491102343184,0.4305621536025337,0.9048145627764548,0.2789260600894949,0.2124053779233985,0.8531899433221916,0.8349131121642971,0.765981240981241,0.6407330420396217,0.1307378497317786,0.1400804289544236
0.1448723690103,0.1175618004670263,0.4380047505938243,0.9178291936032664,0.2670999360750053,0.2077731329793243,0.8527830257230054,0.8339125855713533,0.7648629148629148,0.6386968141517839,0.1267225595066011,0.1355227882037533
0.1415882967607105,0.1111200579756824,0.4323040380047506,0.9231030962912556,0.2665672277860643,0.2013331826912213,0.8502543234994914,0.8321221695629278,0.7628787878787878,0.6335214016035295,0.1222254344544023,0.1297587131367292
0.1458426630840424,0.1149851034704888,0.4308788598574822,0.9185947601224906,0.270189644150863,0.2034798327872557,0.8524051736666183,0.8346234860452869,0.7685786435786436,0.6381453357654945,0.1232854710738492,0.1314119749776586
0.1505448574414091,0.1249698043320718,0.4405384006334125,0.9106839060905072,0.2702961858086511,0.2139871200994237,0.8574625781136463,0.8401263823064771,0.7772005772005772,0.647774996818394,0.1266583148629983,0.1361930294906166
0.1492013733393043,0.1252113696754972,0.4438638163103721,0.9112793467165704,0.2681653526528872,0.2153428991074455,0.8616189507339049,0.84507635597683,0.7832611832611833,0.6535018877529377,0.1270437827246153,0.1370866845397676
0.1406180026869682,0.1138577985345036,0.4397466349960412,0.922252466825451,0.2633709780524185,0.2058524460512936,0.8602819357651504,0.8437862032648762,0.7817821067821067,0.6499384889492217,0.121743599627381,0.1298927613941018
0.1318107180176145,0.1103953619454062,0.4514647664291371,0.9290575025518883,0.2531429789047517,0.2076601513953225,0.8587123964540038,0.8421011058451816,0.7796897546897547,0.646841725703135,0.1167967620699624,0.1223860589812332
0.1404687266756232,0.1240035429583702,0.4600158353127475,0.9169785641374618,0.256552311953974,0.2202011072195232,0.8630140967882576,0.8465771458662454,0.7857503607503608,0.6539685233105672,0.1193023031704731,0.125692582663092
0.151141961486789,0.1346324180690876,0.4584323040380048,0.9052398775093572,0.2646494779458768,0.2270929838436335,0.8688853364336578,0.8532385466034754,0.7954545454545454,0.6645738768930557,0.123349715717452,0.1319481680071492
0.1474846992088371,0.1324583299782591,0.4617577197149644,0.9084722694794148,0.2609205199232899,0.226754039091628,0.8720825461415492,0.8582411795681938,0.8025974025974025,0.6707249819708989,0.1242170184060904,0.1326184092940125
0.1373339304373787,0.1223125855543925,0.4633412509897071,0.9196155154814564,0.2531429789047517,0.2202011072195232,0.8723441360267403,0.8583991574512901,0.8027777777777778,0.6675009544818225,0.1181137772638206,0.1232797140303842
0.1311389759665621,0.1165955390933247,0.4652414885193984,0.9261653623681524,0.2480289793309183,0.216811659699469,0.8724894637407354,0.8588994207477619,0.8034271284271284,0.6653374623509949,0.1136166522116218,0.1160411081322609
0.1406926406926406,0.1272244142040421,0.4657165479018211,0.9151071793126916,0.2547411037715746,0.2244944074115918,0.8771690161313762,0.8638493944181147,0.8119047619047619,0.6722521528867773,0.1151906459798914,0.1181411974977658
0.1492760113449768,0.1379338110959014,0.4687252573238322,0.9045593739367132,0.259855103345408,0.2330810077957293,0.8829821246911786,0.8706161137440758,0.8225468975468976,0.6825181351546261,0.119366547814076,0.1235924932975871
0.1470368711748022,0.1370480715033417,0.4715756136183689,0.9063456958149032,0.2572981035584913,0.2335329341317365,0.8873419561110304,0.8771195365982096,0.83008658008658,0.6893479828617487,0.1192380585268703,0.1234137622877569
0.1400208986415883,0.1326998953216845,0.4782264449722883,0.9125552909152772,0.2500532708288941,0.2328550446277257,0.8889114954221771,0.8791205897840969,0.833189033189033,0.6895600899333985,0.1132954289936076,0.1169794459338695
0.1346469622331691,0.1260971092680569,0.476326207442597,0.919190200748554,0.2468570210952482,0.2274319285956388,0.8894928062781572,0.8812006319115323,0.8362193362193362,0.6903660968056676,0.107127943207735,0.1094727435210008
0.1343484102104791,0.1336661566953861,0.4920031670625496,0.9152773052058524,0.2414233965480502,0.2383911422438142,0.8943467519255922,0.886361242759347,0.844119769119769,0.6948203453103127,0.1044296681764157,0.1060321715817694
0.1448723690103,0.1460665109912231,0.4942201108471893,0.9027730520585234,0.2481355209887065,0.2478815952999661,0.9031245458508936,0.8956819378620327,0.8568181818181818,0.7056802273787809,0.107352799460345,0.1088025022341376
0.1409911927153306,0.1446976407118125,0.4996041171813143,0.9056651922422594,0.2435542297038141,0.2488984295559823,0.908763261153902,0.902817272248552,0.8669552669552669,0.7139948245874518,0.1068067199897208,0.1072386058981233
0.1242722794446932,0.1361623319107818,0.5182897862232779,0.9197005784280368,0.2253356062220328,0.2494633374759913,0.9101293416654556,0.905318588730911,0.8716089466089466,0.7142493530734315,0.0986797725739616,0.0979892761394101
0.1151664427526496,0.1285932844834528,0.5227236737925575,0.9288873766587274,0.2173449818879181,0.2457349452039317,0.9113210289202152,0.9083464981569248,0.8752525252525252,0.7136554532728121,0.0918698403520606,0.0898123324396782
0.1171816689058068,0.1332635477896771,0.527790973871734,0.925314732902348,0.2171318985723417,0.2508191164840131,0.9182386281063798,0.9162717219589256,0.8870129870129869,0.7217579434098333,0.0920304519610677,0.0890080428954423
0.1202418271383788,0.1438119011192528,0.5418844022169439,0.9179993194964274,0.2144683571276369,0.263247090724212,0.9275686673448628,0.9271985255397576,0.9024891774891776,0.734951003266449,0.0939577912691529,0.0908847184986595
0.1144200626959247,0.1463080763346485,0.5591448931116391,0.9199557672677782,0.2045599829533347,0.2711558016043385,0.9346606597878216,0.9359926276987888,0.9129870129870128,0.7418232723879015,0.0910346599852237,0.0887846291331546
0.1018062397372742,0.136484419035349,0.5665874901029296,0.9323749574685268,0.1930534839122096,0.2669754829962716,0.9366080511553552,0.9388888888888888,0.9163780663780664,0.7401264158147034,0.0814300857665992,0.0789991063449508
0.0927004030452306,0.1298011112005797,0.5727632620744261,0.9410513780197348,0.1844236096313658,0.2644898881482318,0.938468245894492,0.9417061611374408,0.9209956709956708,0.7381326093411955,0.0712151874337477,0.0688114387846291
0.0889685027616062,0.1365649408164908,0.5939825811559779,0.9396053079278668,0.1746217771148518,0.2768048808044288,0.9465194012498184,0.9495787256450764,0.9321789321789322,0.7455139354346074,0.0660756159455205,0.0636282394995531
0.0915808329601433,0.1468717288026411,0.6087094220110848,0.9327152092548486,0.1716386106967824,0.2892328550446277,0.9564888824298794,0.9599262769878883,0.9469696969696968,0.7563738175030756,0.0647907230734637,0.0638516532618409
0.086804000597104,0.1479990337386263,0.6210609659540777,0.9348417829193604,0.1639676113360323,0.2945429894927126,0.9628542363028628,0.9665086887835702,0.956024531024531,0.7608280660077208,0.0601008640904564,0.0612153708668454
0.0701597253321391,0.1378532893147596,0.6364212193190816,0.949642735624362,0.1470274877477093,0.2928482657326856,0.9633192849876472,0.9676671932596104,0.956132756132756,0.7554829678021465,0.0499502104012078,0.0512957998212689
0.0602328705776981,0.1323778081971173,0.646714172604909,0.9582340932289896,0.1363733219688898,0.2927352841486837,0.96323208835925,0.9672985781990522,0.956024531024531,0.7522589403130701,0.0411808165494202,0.042627345844504
0.06418868487834,0.1430066833078347,0.6590657165479019,0.9504083021435864,0.1350948220754315,0.3044853688848717,0.9702659497166108,0.9729857819905212,0.9652236652236652,0.757943409833284,0.0404098808261861,0.0418677390527256
0.0658307210031347,0.1543602544488284,0.678068091844814,0.943433140523988,0.1298742808438099,0.3192859563891085,0.9764569103328004,0.9794628751974724,0.9730880230880232,0.7632460866245282,0.0401207799299733,0.0424039320822162
0.0564263322884012,0.1551654722602464,0.6996041171813144,0.9483667914256548,0.1159173236735563,0.3275336120212405,0.9785786949571282,0.9808320168509742,0.9744588744588744,0.7603614304500913,0.0334714593170794,0.0373994638069705
0.0409762651141961,0.1449392060552379,0.7122723673792558,0.9625723035045934,0.1005753249520562,0.3248220540051971,0.9763115826188054,0.9782253817798842,0.9705627705627704,0.7525134687990498,0.0241559859946676,0.026988382484361
