Lead I,Lead II,Lead III,aVR,aVL,aVF,V1,V2,V3,V4,V5,V6
0.1985565819861432,0.2463844967219437,0.40938722294654495,0.7780016970725498,0.2595088520845232,0.2733669879149457,0.5163365325709618,0.31658075601374575,0.5380201958384333,0.47664455500276404,0.4391838351822504,0.393934330353413
0.19751732101616631,0.24570960277670653,0.4098613251155624,0.7788502333474755,0.25825242718446606,0.2729845494875325,0.5236879722278945,0.3234536082474227,0.5428396572827417,0.4795006449235305,0.44100633914421555,0.3969003258417579
0.2028290993071594,0.24951793289625918,0.4084390186085102,0.7742893508697496,0.26430611079383215,0.2755086431084595,0.5358382683275474,0.3383447880870561,0.5510250917992656,0.48360051593882447,0.44576069730586376,0.4027905422341048
0.20306004618937648,0.2491804859236406,0.4071352376437122,0.7743423843869325,0.2651056539120503,0.27489674162459843,0.5325709618133551,0.33118556701030927,0.5488831089351285,0.48106688778330575,0.4451267828843107,0.4035007101679339
0.19451501154734416,0.24170844581565754,0.4061870333056774,0.7824034789987272,0.25711022272986866,0.2686247514150222,0.518991219113743,0.3052691867124857,0.5356487148102815,0.47254468398747007,0.4393819334389858,0.3971509733478152
0.19047344110854506,0.23876783648283842,0.40725376318596657,0.785850657615613,0.2526556253569389,0.2666360715924736,0.5133755360424749,0.30097365406643756,0.530905752753978,0.47097844112769494,0.4362519809825674,0.3943103016124989
0.19653579676674365,0.24469726185885077,0.40938722294654495,0.779804836656767,0.2575671045117076,0.27199020957625825,0.5217480089850929,0.31214203894616266,0.5348072215422276,0.47415699281370927,0.43851030110935024,0.39664967833570053
0.2000577367205543,0.250578480524489,0.41661728102406065,0.7749787865931269,0.2575671045117076,0.27902707664066084,0.536552991627527,0.32746277205040086,0.5435281517747858,0.4776119402985075,0.4427892234548336,0.4006182638482747
0.19001154734411088,0.2500964134207482,0.43605546995377503,0.7798578701739498,0.23826384922901203,0.2849166284228239,0.5375740249132122,0.32674684994272624,0.5452876376988984,0.4770130827344758,0.4433042789223455,0.4009524605230178
0.18100461893764436,0.24407057462398768,0.43972976176366,0.7872825625795502,0.22764134780125644,0.28132170720514,0.5264447620992444,0.30813287514318444,0.5361842105263157,0.4701492537313433,0.4377179080824089,0.3952711170523853
0.18135103926097,0.2419012726571539,0.43368495910868793,0.7883432329232074,0.23083952027412913,0.27765029830197335,0.5244026955278742,0.3065578465063001,0.5336597307221542,0.46968859406670355,0.4370839936608558,0.3943103016124989
0.19064665127020788,0.24898765908214424,0.43202560151712693,0.780176071277047,0.240890919474586,0.2826984855438274,0.536757198284664,0.33233104238258876,0.5452876376988984,0.4768748848350839,0.4431854199683043,0.4000751942518172
0.19699769053117785,0.2572310065561126,0.4391371340523883,0.7726983453542638,0.24374643061107942,0.2915710570598134,0.5508474576271186,0.35567010309278346,0.5557680538555692,0.48332412014004056,0.44912836767036457,0.40550589021639233
0.19896073903002312,0.25954492865406864,0.44091501718620363,0.7705239711497666,0.24477441462021704,0.2939421753097751,0.5515621809270982,0.3523768613974799,0.5542380660954712,0.48171181131380136,0.4487321711568938,0.405255242710335
0.19347575057736724,0.25414577709217123,0.4389000829678795,0.776039456936784,0.2403198172472873,0.28904696343888636,0.536552991627527,0.3321878579610538,0.5442166462668299,0.4761838953381243,0.44362123613312204,0.400158743420503
0.19341801385681295,0.2521693019668338,0.4341590612777053,0.7771531607976241,0.24249000571102233,0.28598745601958087,0.5344088217275883,0.3238831615120275,0.5402386780905752,0.4742491247466372,0.4409667194928685,0.3966079037513577
0.1995958429561201,0.2543386039336676,0.4268104776579353,0.7731226134917267,0.2521987435751,0.2852990668502371,0.5414539513988155,0.33863115693012596,0.546282129742962,0.478671457527179,0.4444136291600634,0.39953212465535964
0.20842956120092382,0.25901465483995373,0.420054521749437,0.7664934238438693,0.26419189034837237,0.28682882055988984,0.5477843577700633,0.3523768613974799,0.5520960832313342,0.4834162520729685,0.44956418383518226,0.4045868493608488
0.20681293302540418,0.2594003085229464,0.4244399668128482,0.7670237590156979,0.2605368360936608,0.2885115496405079,0.5432918113130488,0.3459335624284078,0.5511015911872705,0.48175787728026537,0.4498019017432647,0.4054223410477066
0.20098152424942267,0.2518318549942152,0.41780253644660426,0.7738650827322868,0.25790976584808684,0.28040385497934833,0.5278742086992035,0.3207331042382589,0.5377141982864136,0.47397272894785336,0.4431854199683043,0.3995738992397026
0.19278290993071598,0.2429618202853837,0.41294298921417566,0.7825095460330929,0.25208452312964025,0.27183723420529293,0.5259342454564019,0.30727376861397476,0.5318237454100367,0.4708863091947669,0.4388668779714739,0.3956470883114713
0.1920900692840647,0.24985537986887776,0.43119592272134644,0.7790093338990242,0.24260422615648206,0.28315741165672326,0.5360424749846844,0.31486254295532645,0.5377141982864136,0.47236042012161417,0.44021394611727416,0.3962319324922717
0.19543879907621248,0.2566525260316236,0.441033542728458,0.773759015697921,0.24123358081096521,0.29172403243077866,0.5482948744129058,0.32946735395189003,0.5463586291309669,0.47692095080154784,0.44496830427892237,0.4006600384326176
0.19012702078521942,0.25443501735441576,0.44660424321441267,0.7774183283835383,0.23335237007424334,0.2918005201162613,0.5450275678987134,0.3234536082474227,0.5444461444308445,0.47563110374055656,0.4425911251980983,0.39869663296850194
0.1831986143187067,0.24811993829541074,0.4451819367073604,0.7840475180313958,0.22718446601941755,0.2862934067615114,0.5312436185419644,0.299971363115693,0.5335832313341493,0.46844481297217616,0.43530110935023775,0.3909265602807252
0.18002309468822172,0.2419012726571539,0.43641104658053814,0.7889796351294017,0.22821245002855517,0.2784916628422824,0.5255258321421278,0.2899484536082474,0.5261627906976744,0.4655426570849457,0.4317749603803487,0.38649845434037927
0.18775981524249424,0.24440802159660627,0.4268104776579353,0.7839944845142129,0.2405482581382068,0.27742083524552547,0.5389013681846028,0.3055555555555555,0.536031211750306,0.4700110558319514,0.43573692551505555,0.3908430111120394
0.19382217090069287,0.25072310065561126,0.42977361621429416,0.7777895630038184,0.24500285551113654,0.28338687471317114,0.549315907698591,0.3233104238258877,0.5462056303549572,0.4754007739082366,0.44068938193343904,0.3966079037513577
0.19139722863741343,0.2499517932896259,0.43285528031290743,0.7792745014849385,0.24123358081096521,0.28376931314058434,0.5446191545844394,0.3194444444444444,0.5444461444308445,0.47429519071310117,0.4404516640253566,0.39673322750438633
0.18331408775981528,0.2424797531816429,0.43107739717909205,0.7871234620280017,0.23403769274700176,0.2772678598745602,0.5314478251991014,0.29581901489117984,0.533047735618115,0.46747742767643274,0.4360935023771791,0.392096248642326
0.1801385681293303,0.23833397608947166,0.42740310536920706,0.7908358082308018,0.23266704740148492,0.2728315741165672,0.5241984888707372,0.2856529209621993,0.5281517747858018,0.4656808549843376,0.4338351822503962,0.3903834906842677
0.18348729792147808,0.2432992672580023,0.43261822922839865,0.786593126856173,0.2334665905197031,0.27841517515679975,0.5389013681846028,0.3031214203894616,0.5359547123623011,0.4710245070941589,0.43851030110935024,0.39447739994987047
0.19139722863741343,0.2502410335518704,0.43356643356643354,0.7791154009333899,0.240890919474586,0.2842282392534802,0.5471717377986522,0.31428980526918665,0.543375152998776,0.4740648608807813,0.44199683042789223,0.3971927479321581
0.18706697459584298,0.2504820671037409,0.443048476946782,0.7809715740347899,0.2319817247287265,0.2875172097292336,0.5404329181131304,0.30369415807560135,0.5395501835985312,0.4724986180210061,0.439500792393027,0.3959395104018715
0.17973441108545038,0.24585422290782877,0.44672276875666705,0.7869113279592702,0.22295830953740725,0.2849931161083066,0.5240963855421686,0.2766323024054983,0.5256272949816402,0.4654044591855538,0.43363708399366085,0.3901746177625533
0.1760969976905312,0.24170844581565754,0.4438781557425625,0.7908358082308018,0.22078812107367224,0.28078629340676153,0.522564835613641,0.26746849942726225,0.5198133414932681,0.4617191818684357,0.4303882725832013,0.38770991728632304
0.18100461893764436,0.24614346317007327,0.4448263600805974,0.7861688587187102,0.22512849800114224,0.2846106776808934,0.5387992648560342,0.28278923253150057,0.5283047735618115,0.4674313617099687,0.4348256735340729,0.39280641657615506
0.1836605080831409,0.24865021210952562,0.4455375133341235,0.7835702163767501,0.227412906910337,0.28682882055988984,0.5489074943843169,0.2948167239404353,0.5351132190942472,0.47125483692647874,0.4376782884310618,0.3959812849862144
0.18117782909930719,0.24479367527959894,0.4411520682707123,0.7868582944420873,0.2270702455739578,0.28239253480189686,0.5483969777414743,0.2975372279495991,0.5346542227662179,0.46955039616731165,0.436608557844691,0.39397610493775587
0.17257505773672058,0.23467026610104127,0.43392201019319665,0.7963512940178192,0.22204454597372933,0.27199020957625825,0.5448233612415764,0.2869415807560137,0.5270807833537332,0.4632854247282108,0.4309033280507132,0.38816943771409473
0.17159353348729794,0.23148862321635172,0.42811425862273317,0.7985256682223165,0.22387207310108512,0.2676304115037479,0.5448233612415764,0.28823024054982815,0.5260862913096696,0.4631472268288189,0.4297147385103011,0.38733394602723703
0.18019630484988455,0.2388160431932125,0.4284698352494963,0.7905706406448875,0.23221016561964594,0.273519963285911,0.5623851337553604,0.31572164948453607,0.5380201958384333,0.47010318776487936,0.4352218700475436,0.3927646419918122
0.18666281755196307,0.2460952564596992,0.43309233139741615,0.7835702163767501,0.23643632210165624,0.28078629340676153,0.5806616295691239,0.3416380297823597,0.552937576499388,0.47751980836557956,0.4406101426307449,0.39811178878770154
0.18354503464203237,0.24411878133436177,0.43463316344672276,0.7861158252015272,0.23255282695602517,0.27971546581000456,0.5829079027976312,0.34392898052691867,0.5550795593635252,0.4762760272710522,0.4396988906497623,0.39702564959478653
0.17551963048498848,0.23703239490937136,0.43368495910868793,0.7936996181586763,0.22512849800114224,0.2737494263423589,0.5807637328976925,0.33261741122565863,0.5504895960832313,0.4724525520545421,0.43506339144215533,0.3923051215640404
0.17742494226327948,0.23616467412263786,0.4276401564537158,0.7933283835383962,0.2298115362649915,0.2711488450359492,0.5930161323259138,0.3410652920962199,0.5556150550795593,0.47466371844481303,0.4356973058637084,0.39255576907009776
0.183256351039261,0.2418048592364057,0.42953656512978544,0.7875477301654645,0.23472301541976015,0.2761970322778033,0.6196651010822952,0.3709908361970217,0.5695379436964504,0.4832780541735766,0.4409667194928685,0.39798646503467294
0.18406466512702083,0.24493829541072118,0.43558136778475764,0.7854263894781501,0.23266704740148492,0.2806333180357962,0.6442720032673064,0.38760022909507447,0.5778763769889841,0.4859038142620233,0.4439778129952457,0.4005347146795889
0.177540415704388,0.24556498264558427,0.45051558610880643,0.7880780653372931,0.21896059394631645,0.28598745601958087,0.6520318562385133,0.3754295532646048,0.5747399020807833,0.48143541551501756,0.44049128367670365,0.39790291586598714
0.1685334872979215,0.24117817200154262,0.4582197463553395,0.7946542214679677,0.2062821245002856,0.2849931161083066,0.6458035531958342,0.3370561282932417,0.557374541003672,0.4713469688594067,0.4316164817749604,0.38896315481660954
0.16524249422632797,0.2403586579251832,0.4629607680455138,0.7966164616037335,0.20079954311821818,0.28583448064861555,0.6505003063099857,0.3087056128293241,0.5446756425948592,0.46600331674958545,0.42709984152139463,0.38407552844849197
0.16437644341801388,0.24387774778249136,0.4735095413061515,0.7950784896054306,0.19486007995431184,0.2920299831727092,0.6680620788237697,0.3044100801832761,0.5472001223990207,0.468813340703888,0.4297147385103011,0.3866237780934079
0.1670900692840647,0.2509641342074817,0.48524356998933277,0.7899342384386933,0.1918903483723587,0.30143796848707355,0.6793955482948744,0.3004009163802978,0.5501070991432069,0.47084024322830303,0.4316957210776545,0.3896733227504386
0.16125866050808318,0.25168723486309297,0.498992532890838,0.7922146796775562,0.17955454026270706,0.3064861557289276,0.6684704921380437,0.2773482245131729,0.5449816401468788,0.46733922977704073,0.4306259904912837,0.3892973514913527
0.15894919168591226,0.24614346317007327,0.48998459167950686,0.7962982605006363,0.1814962878355226,0.29921982560807714,0.6255870941392688,0.24298396334478808,0.5310587515299877,0.4604293348074443,0.42503961965134707,0.38378310635809176
0.16633949191685915,0.24705939066718086,0.4771838331160365,0.7924268137462877,0.19508852084523134,0.29577787976135844,0.5802532162548498,0.22909507445589922,0.5272337821297429,0.46190344573429154,0.4246830427892235,0.38349068426769156
0.178175519630485,0.24961434631700735,0.4591679506933744,0.7855854900296987,0.21541976013706457,0.29195349548722654,0.5484990810700429,0.24169530355097368,0.5332007343941249,0.46789202137460845,0.4303486529318542,0.38904670398529534
0.18775981524249424,0.2473486309294254,0.43392201019319665,0.7824034789987272,0.23712164477441466,0.2820100963744837,0.5251174188278538,0.2585910652920962,0.5369492044063647,0.4705638474295191,0.4330427892234549,0.39243044531706905
0.1885103926096998,0.24045507134593133,0.41531350005926276,0.785850657615613,0.24671616219303258,0.27061343123757076,0.5154176026138452,0.27076174112256585,0.5354192166462668,0.46779988944168055,0.4306259904912837,0.38942267524438134
0.18816397228637416,0.23495950636328577,0.4026312670380467,0.7890326686465846,0.2525414049114792,0.262123298148998,0.5092914028997345,0.26575028636884307,0.528687270501836,0.4633314906946748,0.4266244057052298,0.38428440137020636
0.18931870669745962,0.23413999228692636,0.39824582197463554,0.7889796351294017,0.2557395773843518,0.26005813064096683,0.5129671227282009,0.2757731958762887,0.5336597307221542,0.4662336465819053,0.4279714738510302,0.3852869913944356
0.1986143187066975,0.24059969147705362,0.39504563233376794,0.7811306745863386,0.26647629925756716,0.2641884656570292,0.528180518684909,0.3101374570446735,0.5475061199510404,0.47517044407591674,0.43518225039619657,0.39192915030495445
0.20456120092378755,0.24416698804473586,0.39172691715064595,0.7764637250742469,0.2740148486579098,0.2659476824231299,0.5368593016132325,0.32975372279495985,0.5562270501835985,0.4795006449235305,0.44033280507131545,0.3969003258417579
0.20138568129330256,0.23891245661396068,0.3852080123266564,0.7808124734832413,0.2740148486579098,0.25967569221355363,0.5327751684704921,0.3161512027491408,0.549189106487148,0.47535470794177265,0.43724247226624413,0.3943103016124989
0.19422632794457279,0.23177786347859622,0.3824819248548062,0.7879719983029274,0.26830382638492295,0.2530977512620468,0.5207269756994077,0.29095074455899195,0.5339657282741738,0.46761562557582464,0.4303882725832013,0.3870832985211797
0.19191685912240186,0.22898187427689937,0.3803484650942278,0.7905706406448875,0.26704740148486583,0.2501912192137066,0.5197059424137227,0.2820733104238259,0.5283047735618115,0.4651280633867699,0.42729793977812996,0.38386665552677746
0.19451501154734416,0.23442923254917086,0.3882896764252697,0.7863809927874417,0.2657909765848087,0.25707511090714397,0.5364508882989585,0.3031214203894616,0.5408506731946144,0.47185369449051046,0.43328050713153726,0.3895062244130671
0.20023094688221713,0.2401658310836869,0.3906601872703568,0.7806003394145099,0.27024557395773846,0.26242924889092856,0.5429855013273432,0.31414662084765177,0.5464351285189718,0.47521651004238075,0.4363312202852615,0.3927646419918122
0.19676674364896077,0.23847859622059392,0.39362332582671566,0.7831459482392872,0.2654483152484295,0.2619703227780327,0.5362466816418214,0.29538946162657503,0.5386321909424725,0.47060991339598307,0.43240887480190177,0.3888796056479238
0.1853926096997691,0.2312957963748554,0.39943107739717904,0.7923207467119219,0.25139920045688186,0.2582224261893835,0.5247090055135797,0.27004581901489116,0.5240973072215422,0.46236410539893136,0.42488114104595887,0.38081711086974684
0.18441108545034646,0.22811415349016584,0.3935048002844613,0.794548154433602,0.25322672758423764,0.2537096527459079,0.5220543189707983,0.26575028636884307,0.5207313341493268,0.4615809839690437,0.4236925515055468,0.3782270866404879
0.19203233256351043,0.23264558426532972,0.3890008296787958,0.788502333474756,0.2629354654483153,0.25592779562490436,0.5330814784561977,0.2836483390607102,0.5308292533659731,0.4685369449051041,0.42908082408874804,0.38424262678586346
0.1968822170900693,0.2349112996529117,0.3844968590731303,0.7850551548578701,0.2699029126213593,0.25623374636683494,0.5462528078415356,0.29739404352806414,0.5403151774785802,0.47429519071310117,0.4343898573692552,0.3900492940095246
0.19359122401847578,0.23380254531430777,0.3886452530520327,0.7871764955451845,0.2646487721302114,0.25669267247973077,0.5373698182560751,0.27749140893470786,0.5326652386780906,0.46844481297217616,0.4306259904912837,0.3873757206115799
0.18452655889145497,0.23168145005784804,0.4020386393267749,0.7924798472634704,0.24922901199314684,0.25929325378614043,0.5188891157851745,0.2469931271477663,0.5160648714810282,0.45854063018242125,0.4224643423137877,0.3798562954298605
0.18025404157043884,0.22661974546856922,0.39824582197463554,0.7972528638099278,0.24683038263849233,0.2540920911733211,0.5200122523994282,0.24584765177548684,0.5145348837209303,0.45895522388059706,0.42151347068145806,0.37902080374300273
0.18308314087759817,0.23197069032009254,0.4058314566789143,0.7930101824352991,0.2459166190748144,0.2608230074957932,0.5422707780273637,0.27205040091638033,0.5275397796817626,0.466970702045329,0.4270602218700476,0.38495279471969257
0.1842956120092379,0.23741804859236407,0.41661728102406065,0.7894569367840475,0.24191890348372364,0.2686247514150222,0.554931590769859,0.28579610538373423,0.5386321909424725,0.47180762852404645,0.43185419968304284,0.3899657448408388
0.18065819861431873,0.23626108754338607,0.4211212516297262,0.7917904115400933,0.23620788121073674,0.269083677527918,0.545333877884419,0.2769186712485681,0.5334302325581395,0.468905472636816,0.42943740095087163,0.38808588854540893
0.1759237875288684,0.2297531816428847,0.41495792343249965,0.7975180313958421,0.2344945745288407,0.2619703227780327,0.5258321421278334,0.24813860252004583,0.5196603427172583,0.4612124562373319,0.42270206022187007,0.38136018046620435
0.17142032332563514,0.22927111453914387,0.4230176603057959,0.7998515061518879,0.22615648201027988,0.2641884656570292,0.5274657953849294,0.2472794959908362,0.5199663402692778,0.46176524783489964,0.42274167987321715,0.38144372963489015
0.1796766743648961,0.2349112996529117,0.41993599620718264,0.7929571489181162,0.23586521987435755,0.2677068991892305,0.5404329181131304,0.27147766323024053,0.5321297429620563,0.468767274737424,0.42848652931854203,0.3877516918706659
0.18625866050808315,0.23722522175086774,0.41211331041839516,0.7886614340263046,0.24603083952027416,0.2670185100198868,0.5437002246273228,0.28278923253150057,0.5401621787025703,0.47360420121614155,0.43209191759112525,0.3926810928231264
0.18250577367205545,0.23394716544543,0.41175773379163205,0.7922146796775562,0.24260422615648206,0.2642649533425119,0.5331835817847661,0.2633161512027491,0.5302172582619339,0.4678459554081445,0.4274564183835182,0.3880441139610661
0.1782332563510393,0.23105476282298495,0.41341709138319305,0.7957148918116249,0.23757852655625364,0.2625057365764112,0.5180722891566264,0.24398625429553267,0.518359853121175,0.46107425833793997,0.4225435816164818,0.3829893892555769
0.18487297921478063,0.23418819899730042,0.4074908142704753,0.7909418752651676,0.24694460308395208,0.2631176380602723,0.5149070859710025,0.24541809851088203,0.5175948592411261,0.4614888520361157,0.42238510301109355,0.38386665552677746
0.19168591224018477,0.24021403779406092,0.4083204930662558,0.7845248196860416,0.25334094802969737,0.2680893376166437,0.5295078619562997,0.2611683848797251,0.5285342717258262,0.4685369449051041,0.42721870047543586,0.39000751942518175
0.1868360277136259,0.24204589278827612,0.4227806092212872,0.7857445905812472,0.24146202170188466,0.27428484014073734,0.540535021441699,0.27233676975945015,0.5344247246022031,0.47213009028929426,0.4301505546751189,0.3933494861726126
0.1765588914549654,0.2382375626687235,0.43463316344672276,0.7925859142978362,0.2255853797829812,0.27504971699556374,0.5311415152133959,0.25386597938144334,0.5267747858017136,0.4671088999447209,0.42618858954041206,0.3900910685938675
0.1706697459584296,0.23225993058233704,0.43190707597487255,0.7985787017394993,0.22113078241005146,0.2693896282698485,0.518378599142332,0.2310996563573883,0.5144583843329253,0.460936060438548,0.4200871632329636,0.38395020469546326
0.1691685912240185,0.22970497493251063,0.42870688633400494,0.8006470089096308,0.22124500285551116,0.2663301208505431,0.5190933224423115,0.2342497136311569,0.5159118727050184,0.4617191818684357,0.4198098256735341,0.3830729384242627
0.17338337182448038,0.2351523332047821,0.43344790802417915,0.7957148918116249,0.223072529982867,0.27221967263270613,0.5357361649989789,0.2585910652920962,0.5280752753977969,0.46844481297217616,0.4260697305863709,0.38791879020803743
0.1752886836027714,0.2376108754338604,0.43546284224250326,0.7934874840899447,0.22398629354654487,0.2748202539391158,0.545538084541556,0.2740549828178694,0.5339657282741738,0.47222222222222227,0.43007131537242477,0.39251399448575486
0.16772517321016167,0.23332047821056692,0.4405594405594405,0.7993211709800594,0.21404911479154773,0.27306103717301516,0.5379824382274863,0.26188430698739973,0.5270042839657283,0.46803021927400046,0.4276941362916007,0.39080123652769655
0.16304849884526562,0.227632086386425,0.43605546995377503,0.8045714891811625,0.21165048543689324,0.26709499770536943,0.5239942822136001,0.23739977090492556,0.5149938800489596,0.4602911369080524,0.42159270998415216,0.3850781184727212
0.16824480369515016,0.22719822599305825,0.4244399668128482,0.8024501484938481,0.22227298686464883,0.26304115037478965,0.5253216254849908,0.2399770904925544,0.5155293757649939,0.4612124562373319,0.42151347068145806,0.38532876597877846
0.17280600461893766,0.23394716544543,0.4316700248903639,0.7966164616037335,0.22330097087378645,0.2706899189230534,0.541760261384521,0.2654639175257732,0.5284577723378213,0.46922793440206384,0.4284072900158479,0.39222157239535466
0.17263279445727484,0.23862321635171616,0.4435225791157994,0.7941238862961391,0.21747572815533986,0.2781857121003518,0.5543189707984479,0.2790664375715922,0.5371022031823746,0.4739266629813894,0.433676703645008,0.3969838750104437
0.1687066974595843,0.23534516004627845,0.4435225791157994,0.7977831989817564,0.21359223300970878,0.27558513079394215,0.545538084541556,0.25945017182130586,0.5287637698898409,0.4683987470057122,0.4297147385103011,0.39184560113626865
0.16148960739030024,0.23028345545699963,0.44589308996088656,0.8038290199406024,0.20525414049114793,0.2723726480036714,0.5268531754135184,0.23167239404352805,0.516141370869033,0.46139672010318783,0.4240095087163233,0.385871835575236
0.16108545034642036,0.2312957963748554,0.44921180514400855,0.8035108188375052,0.20331239291833245,0.2742083524552547,0.5252195221564223,0.22193585337915236,0.5117809057527539,0.4598765432098766,0.423217115689382,0.38541231514746427
0.16760969976905316,0.24011762437331274,0.4575085931018134,0.795661858294442,0.2057110222729869,0.2839222885115496,0.5416581580559525,0.24198167239404353,0.5228733170134638,0.46779988944168055,0.4293977812995246,0.39251399448575486
0.17118937644341803,0.24652911685306594,0.46592390660187266,0.7904645736105218,0.20525414049114793,0.29172403243077866,0.5492138043700224,0.24914089347079038,0.527998776009792,0.4714851667587986,0.4331616481774961,0.3958141866488429
0.16807159353348733,0.24382954107211727,0.465686855517364,0.7933814170555792,0.20228440890919477,0.28950588955178214,0.5387992648560342,0.23367697594501718,0.5193543451652387,0.46641791044776126,0.4305863708399366,0.39263931823878356
0.15750577367205545,0.23862321635171616,0.47457627118644063,0.8011243105642766,0.1875499714448887,0.28828208658405996,0.5351235450275679,0.22537227949599078,0.5148408812729498,0.4622719734660034,0.42587163232963554,0.3875010443646085
0.14930715935334876,0.2429618202853837,0.5021927225317055,0.8025031820110309,0.16607652769845804,0.3005966039467645,0.5672860935266489,0.29009163802978233,0.551484088127295,0.47738161046618766,0.43264659270998423,0.390258166931239
0.151905311778291,0.2554473582722715,0.527320137489629,0.7944420873992363,0.15659623072529988,0.31857121003518435,0.6309985705533999,0.46721076746849943,0.641217870257038,0.5198544315459739,0.45522979397781305,0.4037513576739911
0.15560046189376447,0.2728981874276899,0.5627592746236814,0.7831459482392872,0.14311821816105086,0.3438886339299373,0.6909332244231162,0.6626575028636884,0.7468635250917993,0.5741201400405381,0.4895800316957211,0.42877433369537976
0.1622401847575058,0.3012919398380255,0.6189403816522461,0.7644781501909207,0.1226727584237579,0.3845800826067003,0.6792934449663058,0.7079037800687286,0.8008720930232557,0.6198636447392667,0.5331616481774961,0.47021472136352244
0.18874133949191688,0.3306016197454686,0.636600687448145,0.7361582520152736,0.14037692747001715,0.41349242771913725,0.6192566877680212,0.6497709049255441,0.8131119951040391,0.6673576561636264,0.5970285261489698,0.542401203108029
0.24555427251732104,0.36314114924797536,0.5999762948915491,0.6921934662706831,0.21416333523700745,0.42748967416245987,0.5555442107412701,0.6320160366552119,0.8669675642594858,0.7581536760641239,0.7118066561014263,0.6720277383240036
0.34538106235565824,0.4050327805630544,0.4980443285528031,0.6232498939329656,0.36207881210736725,0.427872112589873,0.4773330610577905,0.6367411225658648,0.9461444308445532,0.8800442233278055,0.8636291600633914,0.8433870832985211
0.4368937644341802,0.4336675665252604,0.38058551617873654,0.5654963937208316,0.509194745859509,0.4126510631788282,0.39401674494588523,0.6006586483390607,0.9696297429620562,0.9514925373134329,0.9641838351822505,0.9609825382237447
0.4860277136258661,0.4403200925568839,0.29607680455138086,0.5392978362324989,0.5985151342090235,0.3906226097598287,0.30324688584847864,0.5038659793814433,0.8985618115055078,0.9323751612308827,0.9730190174326465,0.9843763054557607
0.46154734411085463,0.4404647126880062,0.3466872110939907,0.5504348748408994,0.5498572244431754,0.40714394982407837,0.28823769654890746,0.411368843069874,0.7775397796817625,0.8209876543209876,0.8748019017432648,0.8977358175286156
0.39994226327944576,0.4210856151176244,0.4255066966931374,0.5893614764531183,0.4509423186750429,0.4171638366223038,0.34020829079027975,0.2969644902634593,0.5835373317013464,0.6107886493458633,0.6699683042789224,0.7058651516417412
0.3189953810623557,0.34130350944851523,0.3955197345027853,0.6704497242257106,0.3853797829811537,0.34419458467186786,0.4777414743720645,0.2637457044673539,0.4000917992656059,0.38326884098028374,0.42393026941362916,0.4570139527111705
0.19030023094688225,0.24498650212109527,0.4228991347635415,0.7825625795502757,0.2448886350656768,0.2765794707052165,0.6672452521952216,0.30054410080183275,0.2711138310893513,0.18334254652662615,0.19041204437400955,0.21117052385328766
0.0569284064665127,0.18294446586964905,0.5441507644897475,0.8779168434450572,0.054483152484294695,0.26655958390699097,0.8103941188482744,0.3329037800687285,0.21289779681762544,0.0763313064308089,0.06335182250396196,0.07494360431113713
0.00687066974595844,0.14510219822599305,0.5538698589546047,0.9217225286380992,0.0003426613363792574,0.23963591861710268,0.848274453747192,0.2784936998854525,0.1834455324357405,0.06020821816841722,0.043462757527733785,0.046202690283231686
0.014722863741339494,0.1423062090242962,0.5308759037572596,0.9196542214679676,0.01918903483723584,0.22999847024629036,0.9012660812742495,0.4558991981672394,0.2987301101591187,0.15220195319697807,0.11434231378763866,0.10013367866989722
0.04035796766743649,0.1827998457385268,0.5778120184899845,0.8856067034365718,0.021930325528269602,0.2772678598745602,0.9304676332448437,0.6327319587628866,0.4436199510403917,0.26478717523493644,0.2084786053882726,0.18063330269863814
0.0733833718244804,0.22126880061704587,0.604598791039469,0.8492787441663131,0.0416904625928041,0.31642955484167046,0.8875842352460689,0.6940148911798395,0.508032435740514,0.3393219089736503,0.2822107765451664,0.24851700225582757
0.09717090069284065,0.22546278441959122,0.5661965153490577,0.8360203648705982,0.08372358652198747,0.3074040079547193,0.7746579538492955,0.6189862542955327,0.4787331701346389,0.3630919476690621,0.31782884310618065,0.2849862143871668
0.11524249422632797,0.215580408792904,0.504681758919047,0.8332095884599066,0.1312392918332382,0.27963897812452193,0.703083520522769,0.6331615120274913,0.4979345165238678,0.39197530864197533,0.34429477020602217,0.3088812766312975
0.1393764434180139,0.21403779406093326,0.45146379044684126,0.8229210861264318,0.18069674471730443,0.261281933608689,0.6724525219522156,0.6742554410080183,0.5589045287637698,0.4366132301455685,0.3777733755942948,0.3372879939844598
0.1584872979214781,0.22049749325106055,0.4279957330804788,0.8106173101400085,0.21096516276413482,0.2588343276732446,0.6350827036961404,0.575028636884307,0.5755048959608323,0.4627326331306431,0.40301109350237724,0.36059821204779013
0.16449191685912243,0.23134400308522945,0.4423373236932559,0.8018667798048366,0.2099371787549972,0.2720666972617409,0.6087400449254645,0.4616265750286369,0.5683139534883721,0.46835268103924826,0.4115689381933439,0.36970507143453923
0.16050808314087764,0.22951214809101428,0.44589308996088656,0.804730589732711,0.20434037692747006,0.2717607465198103,0.5850520726975699,0.38545246277205036,0.5537025703794369,0.46383821632577854,0.41101426307448496,0.36857715765728133
0.15935334872979218,0.2246914770536059,0.43641104658053814,0.8079126007636827,0.2077669902912622,0.26487685482637296,0.5653461302838473,0.34507445589919816,0.5400856793145655,0.4584945642159573,0.40721077654516646,0.36368953128916365
0.16125866050808318,0.22517354415734672,0.43380348465094226,0.8067988969028426,0.21085094231867507,0.26441792871347714,0.5664692668981008,0.3356242840778923,0.5400091799265606,0.4605675327068362,0.4084786053882726,0.36531874007853615
0.16957274826789842,0.2312957963748554,0.43178855043261827,0.7995863385659736,0.22010279840091382,0.2686247514150222,0.5798448029405758,0.34808132875143183,0.5503365973072215,0.4682605491063203,0.41454041204437403,0.37229509566379815
0.17372979214780604,0.2348630929425376,0.43202560151712693,0.7957148918116249,0.22410051399200462,0.2715312834633624,0.590055135797427,0.35280641466208473,0.5541615667074663,0.47060991339598307,0.4175515055467512,0.3747180215556855
0.1651847575057737,0.22980138835325878,0.4370036742918099,0.8023971149766652,0.21324957167332959,0.269083677527918,0.577292219726363,0.3258877434135166,0.5423806609547124,0.46264050119771516,0.4116877971473852,0.36882780516333863
0.15958429561200926,0.22719822599305825,0.4421002726087472,0.8064276622825626,0.20525414049114793,0.2687012391005048,0.5638145803553195,0.2981099656357388,0.5297582619339045,0.4555463423622628,0.40459587955626,0.36297936335533465
0.1647806004618938,0.23081372927111454,0.4405594405594405,0.8020258803563852,0.21107938320959457,0.2710723573504666,0.5655503369409842,0.2986827033218786,0.5305997552019583,0.45665192555739825,0.4051505546751189,0.3631464616927061
0.17193995381062357,0.23693598148862324,0.44091501718620363,0.7953966907085278,0.21804683038263853,0.27604405690683803,0.5796405962834388,0.31658075601374575,0.5410801713586292,0.4636078864934587,0.41137083993660856,0.3684936084885956
0.17696304849884528,0.240262244504435,0.4387815574256252,0.7912600763682648,0.22398629354654487,0.2779562490439039,0.5878088625689197,0.3263172966781214,0.5466646266829865,0.46545052515201774,0.41335182250396196,0.3708329852117971
0.17332563510392612,0.2357790204396452,0.43522579115799453,0.7953966907085278,0.22215876641918908,0.27329050022946305,0.5774964263835001,0.3071305841924399,0.5351132190942472,0.4577575087525336,0.4086370839936609,0.36552761300025066
0.1668591224018476,0.22874084072502895,0.43107739717909205,0.8022380144251167,0.21781838949171908,0.2664066085360257,0.5619767204410864,0.2763459335624284,0.5209608323133414,0.44895890915791414,0.401743264659271,0.35754866739075947
0.1654157043879908,0.22681257231006557,0.4292995140452768,0.8039350869749682,0.21724728726442036,0.2642649533425119,0.563304063712477,0.26746849942726225,0.5165238678090576,0.4478993919292428,0.3996038034865293,0.3557523602640154
0.16680138568129332,0.23201889703046663,0.43925565959464263,0.8004879083580823,0.21370645345516853,0.271607771148845,0.5824994894833572,0.2888029782359679,0.5278457772337821,0.45508568269762306,0.404041204437401,0.36026401537304703
0.16743648960739033,0.2330794446586965,0.4405594405594405,0.7995863385659736,0.21370645345516853,0.27290806180204985,0.5919950990402287,0.29667812142038946,0.5327417380660955,0.4564676616915423,0.40578446909667193,0.36097418330687603
0.1611431870669746,0.22787311993829545,0.4406779661016949,0.8053139584217225,0.2075385494003427,0.26877772678598744,0.5853583826832754,0.2783505154639175,0.5221848225214197,0.449189238990234,0.39980190174326463,0.355167516083215
0.15207852193995383,0.22281141534901658,0.44672276875666705,0.8122613491726771,0.19565962307253001,0.26671255927795623,0.5746375331835818,0.2585910652920962,0.5078794369645042,0.44154228855721395,0.39270998415213954,0.348567131757039
0.1539838337182448,0.22502892402622449,0.44838212634822805,0.8101930420025456,0.19668760708166763,0.2690071898424354,0.5795384929548703,0.2633161512027491,0.5097154222766217,0.4429242675511333,0.3929477020602219,0.3485253571726961
0.16322170900692842,0.23201889703046663,0.44660424321441267,0.8020789138735681,0.20662478583666483,0.27397888939880677,0.5949560955687154,0.2879438717067583,0.5233323133414932,0.4513543394140409,0.39873217115689386,0.3542902498120144
0.16339491916859125,0.2321635171615889,0.44660424321441267,0.8019728468392023,0.20685322672758427,0.27405537708428945,0.6015928119256687,0.29567583046964485,0.5278457772337821,0.45259812050856835,0.3997226624405706,0.3550839669145292
0.15473441108545036,0.2243540300809873,0.4451819367073604,0.8102460755197284,0.1989720159908624,0.26740094844729995,0.5930161323259138,0.27806414662084766,0.5180538555691555,0.44462870831030044,0.3940174326465928,0.3482747096666388
0.14705542725173212,0.21635171615888932,0.4412705938129667,0.8181480695799744,0.19326099371787553,0.2598286675845189,0.5752501531549928,0.25,0.5048194614443084,0.43541551501750514,0.3854992076069731,0.33983624362937587
0.14809468822170901,0.21398958735055923,0.4333293824819249,0.8189435723377174,0.19805825242718453,0.2553923818265259,0.5775985297120686,0.2478522336769759,0.5028304773561811,0.43449419568822556,0.3835974643423138,0.3369955718940596
0.156986143187067,0.21876205167759352,0.4268104776579353,0.8122613491726771,0.2100513992004569,0.25707511090714397,0.5913824790688176,0.2637457044673539,0.5115514075887393,0.4402524414962226,0.387797147385103,0.34071350990057647
0.16218244803695153,0.22097956035480137,0.42159535379874363,0.8086550700042426,0.21770416904625933,0.2571515985926266,0.5961813355115376,0.270475372279496,0.5152233782129743,0.44126589275843014,0.38906497622820924,0.34205029659954883
0.15767898383371828,0.21606247589664482,0.41875074078463903,0.8134280865507001,0.2146202170188464,0.2523328744072204,0.5833163161119053,0.2482817869415808,0.5054314565483476,0.43338861249309013,0.38213153724247234,0.3356587851950873
0.1500577367205543,0.20994022367913612,0.4193433684959109,0.8203224437844717,0.20685322672758427,0.24766712559277956,0.573105983255054,0.21778350515463918,0.48798959608323134,0.4225631103740557,0.3730586370839937,0.32579998329016624
0.14070438799076215,0.209843810258388,0.4383074552566078,0.8246711921934662,0.18834951456310686,0.2537096527459079,0.5836226260976107,0.21477663230240548,0.4873011015911872,0.421964252810024,0.37143423137876386,0.32392012699473643
0.14463048498845268,0.21432703432317782,0.441389119355221,0.8203754773016546,0.19074814391776132,0.2582224261893835,0.6004696753114152,0.231815578465063,0.4978580171358629,0.42693937718813346,0.37511885895404123,0.3262177291335951
0.14532332563510394,0.21490551484766682,0.4411520682707123,0.8197390750954603,0.19166190748143924,0.25868135230227934,0.6053706350827037,0.23539518900343642,0.5001529987760098,0.42693937718813346,0.37472266244057056,0.3256746595371376
0.13845265588914554,0.2102776706517547,0.4438781557425625,0.8254666949512092,0.18343803540833814,0.25585130793942173,0.5929140289973452,0.2094788087056128,0.486000611995104,0.41703519439837855,0.36652139461172745,0.3183223326927897
0.13077367205542725,0.20444465869649056,0.44541898779186917,0.8322019516334324,0.17521416333523707,0.2517209729233593,0.5762711864406779,0.18213058419243985,0.4687882496940024,0.4071310116086236,0.3577258320126783,0.30963321914946945
0.13187066974595843,0.20598727342846124,0.4469598198411758,0.8308230801866779,0.1754426042261565,0.2534037020039773,0.5799469062691444,0.1781214203894616,0.4673347613219094,0.4076838032061913,0.35618066561014267,0.3077951374383825
0.1393764434180139,0.21119359814886232,0.44423373236932556,0.8245120916419176,0.1842375785265563,0.25669267247973077,0.5921993056973657,0.19473081328751432,0.47804467564259484,0.4137184448129722,0.3607369255150555,0.3114295262762135
0.13926096997690532,0.21206131893559585,0.44672276875666705,0.8240878235044548,0.1829811536264992,0.2581459385039009,0.5988360220543189,0.19945589919816725,0.4811046511627907,0.4143173023770039,0.36113312202852615,0.3122232433787284
0.13158198614318709,0.20806016197454685,0.45264904586938487,0.8298154433602036,0.17247287264420333,0.25692213553617865,0.5866857259546661,0.1722508591065292,0.46924724602203177,0.4050580431177447,0.35316957210776545,0.3039101010944941
0.1222863741339492,0.20362514462013112,0.4608273082849354,0.8365507000424267,0.15933752141633353,0.25600428331038705,0.5727996732693484,0.13903207331042383,0.4522643818849449,0.394555002763958,0.34366085578446914,0.29538808588854537
0.12292147806004622,0.20555341303509447,0.4642645490103118,0.8351718285956725,0.15830953740719592,0.25868135230227934,0.5738207065550337,0.13659793814432988,0.44889840881272947,0.3941404090657822,0.342393026941363,0.29396775002088726
0.12950346420323328,0.21162745854222909,0.46556832997510966,0.8288078065337292,0.16413478012564256,0.2639590026005813,0.5854604860118439,0.1453321878579611,0.45631884944920437,0.39837847798046805,0.3466323296354992,0.29785278636477563
0.13296766743648963,0.21596606247589664,0.46924262178499465,0.8248302927450148,0.1658480868075386,0.26854826372953955,0.5845415560547274,0.14203894616265753,0.4577723378212974,0.39870093974571585,0.34778129952456427,0.2998161918288913
0.12725173210161664,0.21418241419205555,0.47659120540476474,0.8284365719134492,0.15659623072529988,0.2694661159553312,0.5674903001837859,0.11397479954180982,0.4455324357405141,0.3914225170444076,0.34203645007923933,0.29463614337037347
0.11957274826789842,0.2103740840725029,0.4831101102287543,0.8340581247348324,0.1459737292975443,0.26854826372953955,0.5511537676128242,0.08089919816723945,0.4319155446756426,0.38193292795282846,0.3352218700475436,0.28765978778511153
0.12355658198614322,0.21172387196297726,0.4781320374540714,0.831512515910055,0.15225585379782983,0.2680128499311611,0.5526853175413519,0.07517182130584196,0.43122705018359847,0.3823935876174682,0.3349049128367671,0.2878268861224831
0.12961893764434182,0.21548399537215582,0.47493184781320374,0.826633432329232,0.1597944031981725,0.27000152975370967,0.5663671635695323,0.09392898052691871,0.4430079559363525,0.3898562741846324,0.34025356576862126,0.2938424262678586
0.12869515011547344,0.21490551484766682,0.47540594998222113,0.827375901569792,0.1586521987435751,0.2696955790117791,0.5730038799264855,0.10967926689576175,0.451499388004896,0.39285056200479096,0.3426703645007924,0.29705906926226083
0.1256928406466513,0.2095545699961435,0.46841294298921415,0.8316716164616038,0.15899486007995434,0.2631941257457549,0.5617725137839493,0.09851088201603668,0.446297429620563,0.3871383821632578,0.33791600633914426,0.2935500041774584
0.12355658198614322,0.20733706131893562,0.467346213108925,0.8338990241832839,0.15750999428897774,0.2610524705522411,0.5542168674698794,0.0876288659793814,0.4418604651162791,0.3834991708126037,0.3344690966719493,0.29050045952042775
0.12973441108545036,0.2112900115696105,0.46438307455256606,0.8289138735680951,0.16493432324386068,0.2632706134312376,0.563712477026751,0.10409507445589922,0.45012239902080786,0.3883360972913212,0.33862916006339144,0.29484501629208787
0.1351039260969977,0.2200636328576938,0.47493184781320374,0.8215952481968604,0.16516276413478018,0.27367293865687625,0.5880130692260568,0.1434707903780069,0.47177172582619337,0.4011885019347706,0.3483755942947702,0.3049544657030662
0.13966512702078523,0.2239683763979946,0.47505037335545813,0.8173525668222316,0.16973158195316967,0.27673244607618175,0.6001633653257096,0.16795532646048109,0.48867809057527534,0.4098028376635342,0.35447702060221875,0.31017628874592695
0.13614318706697462,0.2179425376012341,0.46758326419343366,0.8222846839202376,0.16984580239862937,0.26954260364081384,0.5966918521543803,0.17439862542955323,0.4947215422276621,0.4115533443891653,0.3561014263074485,0.3110117804327847
0.1304849884526559,0.2178461241804859,0.4789617162498519,0.8249363597793805,0.1587664191890349,0.2731375248584978,0.5942413722687359,0.1752577319587629,0.4966340269277845,0.4119679380873411,0.3566164817749604,0.30975854290249816
0.13331408775981526,0.2256074045507135,0.49223657698233964,0.8193678404751803,0.1551113649343233,0.2836163377696191,0.6119052481110884,0.19773768613974801,0.5094859241126071,0.41869356919108164,0.3612123613312203,0.3152310134514162
0.14087759815242498,0.2319224836097185,0.492355102524594,0.8124204497242257,0.16253569388920622,0.28866452501147316,0.6484582397386154,0.23711340206185563,0.5327417380660955,0.4322830292979547,0.37202852614896986,0.32525691369370874
0.14255196304849888,0.23790011569610492,0.5036150290387579,0.8083368689011455,0.1587664191890349,0.29707817041456325,0.6637737390238921,0.25443871706758303,0.5468941248470012,0.4397457158651189,0.3778129952456418,0.3316066505138274
0.13504618937644344,0.2363575009641342,0.5152305321796847,0.8126325837929571,0.14574528840662482,0.2996022640354903,0.6550949560955687,0.224942726231386,0.5410036719706243,0.4348627234199374,0.37480190174326466,0.32876597877851116
0.12638568129330258,0.23655032780563057,0.5333649401446011,0.8165570640644888,0.12838378069674472,0.305568303503136,0.6479477230957729,0.19029209621993123,0.5333537331701346,0.43149990786806713,0.3731378763866878,0.32642660205530954
0.13441108545034644,0.24498650212109527,0.537631859665758,0.8082308018667798,0.13432324386065106,0.31359951047881285,0.6501939963242802,0.17711912943871708,0.5376376988984088,0.4367514280449604,0.37820919175911255,0.3318572980198847
0.14976905311778294,0.2592074816814501,0.5410691003911342,0.7933283835383962,0.14780125642490008,0.32599051552700015,0.658770675924035,0.18986254295532642,0.5540085679314566,0.45112400958172105,0.3897781299524564,0.34464032082880774
0.160161662817552,0.26865599691477055,0.542965509067204,0.7833580823080186,0.1572815533980583,0.3340982101881597,0.6448846232387175,0.20031500572737684,0.5668604651162791,0.46264050119771516,0.4000792393026941,0.35600300777007265
0.1649538106235566,0.2725125337446973,0.5426099324404409,0.7790093338990242,0.16207881210736724,0.33708122992198253,0.5978149887686338,0.18399198167239406,0.5662484700122399,0.46466740372213017,0.40412044374009515,0.360639986632133
0.17303695150115475,0.27386232163517166,0.529335071707953,0.7745545184556639,0.17658480868075388,0.3338687471317118,0.5477843577700633,0.1754009163802978,0.5632649938800489,0.46789202137460845,0.40816164817749606,0.3647756704820787
0.18966512702078525,0.27718858465098345,0.5033779779542491,0.765114552397115,0.20548258138206746,0.32813217072051404,0.5068409230140902,0.1965922107674685,0.5721389228886169,0.4779804680302193,0.41933438985736926,0.37551173865820037
0.20894919168591228,0.2798881604319321,0.47042787720753826,0.7547730165464573,0.24043403769274704,0.31964203763194127,0.4954053502144169,0.25114547537227944,0.5952417380660955,0.4947484798231067,0.434270998415214,0.3899657448408388
0.21426096997690533,0.27699575780948704,0.45241199478487615,0.7539244802715316,0.25436893203883504,0.3115343429707817,0.500612619971411,0.30054410080183275,0.613984088127295,0.5051593882439654,0.44449286846275754,0.39982454674575985
0.21345265588914553,0.2718376397994601,0.441389119355221,0.757159524819686,0.2588235294117648,0.30388557442251796,0.4858076373289769,0.3095647193585338,0.6138310893512852,0.5055279159756771,0.4454041204437401,0.401620853872504
0.21379907621247116,0.2715483995372156,0.4399668128481688,0.7571064913025032,0.2599657338663621,0.30319718525317424,0.47814988768633854,0.31400343642611683,0.6124541003671969,0.5060807075732449,0.4463153724247227,0.4030829643245049
0.2221131639722864,0.26971654454300037,0.41839516415787603,0.7543487484089945,0.27846944603083956,0.29478353985008415,0.48774760057177863,0.3495131729667812,0.6263769889840882,0.5159848903629998,0.4560221870047544,0.4131088645667976
0.23019630484988454,0.27617624373312766,0.41756548536209553,0.7470301230377598,0.28692175899486017,0.2996022640354903,0.5075556463140698,0.39075028636884307,0.6451958384332925,0.5295282845034089,0.46802694136291606,0.4252652686105773
0.2323903002309469,0.27603162360200545,0.41282446367192127,0.7461285532456512,0.2913763563677899,0.2979960226403549,0.5149070859710025,0.3983390607101947,0.6464963280293757,0.5327529021558873,0.47155309033280507,0.428649009942351
0.22678983833718247,0.2684631700732742,0.4057129311366599,0.7528638099278744,0.28920616790405484,0.2897353526082301,0.5012252399428221,0.3731386025200458,0.62874847001224,0.5226644555002764,0.4654912836767037,0.423176539393433
0.22101616628175522,0.26099112996529117,0.3991940263126704,0.7595990666100976,0.28669331810394066,0.2816276579470705,0.4879518072289157,0.35366552119129435,0.6142900856793146,0.5148332412014005,0.4602614896988907,0.4184977859470298
0.2247113163972287,0.26229271114539143,0.39492710679151355,0.7572125583368688,0.29240434037692753,0.28132170720514,0.49479273024300585,0.36125429553264604,0.6142900856793146,0.5179196609544868,0.4613312202852615,0.42046119141114546
0.22892609699769054,0.2666795217894331,0.3968235154675833,0.7528638099278744,0.2957167332952599,0.2853755545357197,0.5119460894425159,0.3831615120274914,0.6236230110159118,0.5245992260917635,0.4671156893819335,0.42656028072520674
0.2252309468822171,0.2642209795603548,0.3984828730591443,0.7559397539244802,0.2911479154768704,0.2839987761970323,0.5178680824994895,0.3888888888888889,0.6234700122399021,0.523585774829556,0.46755150554675123,0.42752109616509315
0.2191685912240185,0.2581951407635943,0.39611236221405716,0.7620386084005091,0.28635065676756144,0.27841517515679975,0.503982029814172,0.36411798396334477,0.6069461444308445,0.5128524046434495,0.46049920760697305,0.4200852201520595
0.21795612009237877,0.2552063247204011,0.39125281498162856,0.7642129826050064,0.28749286122215884,0.2745143031971852,0.4917296303859505,0.34550400916380297,0.5951652386780906,0.5056200479086052,0.45522979397781305,0.4141114545910268
0.22113163972286376,0.25829155418434246,0.39231954486191767,0.7610309715740348,0.2901199314677328,0.27734434756004284,0.4959158668572595,0.3519473081328751,0.5980722154222766,0.5074166206007003,0.4567353407290016,0.41578243796474224
0.22361431870669748,0.2629193983802545,0.39860139860139854,0.7573716588884174,0.28954882924043407,0.283004436285758,0.5092914028997345,0.3745704467353952,0.6077876376988984,0.5128063386769854,0.4607369255150555,0.42071183891720276
0.2214780600461894,0.2591110682607019,0.39362332582671566,0.7604476028850232,0.28989149057681335,0.27841517515679975,0.5174596691852154,0.3813001145475372,0.608782129742962,0.513681592039801,0.45970681458003176,0.41991812181468796
0.21680138568129334,0.2496625530273814,0.38011141400971904,0.767766228256258,0.29171901770416914,0.26655958390699097,0.5104145395139881,0.36211340206185566,0.5975367197062423,0.5066334991708127,0.4522583201267829,0.41244047121731137
0.20860277136258662,0.24493829541072118,0.3850894867844021,0.7741832838353839,0.2812107367218733,0.26434144102799445,0.5038799264856034,0.34621993127147765,0.586750305997552,0.49847982310668887,0.4459587955625991,0.405631213969421
0.20877598152424945,0.249421519475511,0.39587531112954844,0.7716376750106066,0.2761850371216448,0.27145479577787973,0.5069430263426588,0.34607674684994266,0.5856028151774786,0.4944720840243229,0.4428684627575278,0.40274876764976186
0.20779445727482682,0.255736598534516,0.41341709138319305,0.7686147645311837,0.26670474014848666,0.28208658405996634,0.5201143557279967,0.3629725085910652,0.592640758873929,0.4967293163810578,0.44465134706814585,0.4044197510234773
0.20646651270207855,0.25510991129965294,0.41460234680573665,0.7695693678404751,0.2648772130211309,0.2819336086890011,0.5297120686134368,0.37671821305841924,0.5959302325581395,0.4982494932743689,0.44500792393026944,0.4043362018547915
0.19659353348729794,0.24508291554184344,0.41021690174232545,0.7795927025880356,0.25722444317532844,0.2726021110601193,0.5254237288135593,0.3652634593356242,0.5892747858017136,0.49359683066150734,0.4396988906497623,0.39781936669730134
0.18804849884526562,0.23867142306209024,0.4119947848761408,0.7870704285108188,0.24785836664762997,0.2680893376166437,0.518787012456606,0.35409507445589916,0.5821603427172583,0.48843744241754194,0.43407290015847866,0.3915114044615256
0.1893764434180139,0.24416698804473586,0.4227806092212872,0.7834111158252015,0.24397487150199892,0.27596756922135535,0.522973248927915,0.3595360824742268,0.5852968176254589,0.4892205638474296,0.4355388272583201,0.3927646419918122
0.1939376443418014,0.24951793289625918,0.42657342657342656,0.7783729316928298,0.24671616219303258,0.2813981948906226,0.5335919950990402,0.3805841924398625,0.5973837209302325,0.4944720840243229,0.4401347068145801,0.39827888712507314
0.19087759815242497,0.24980717315850368,0.43344790802417915,0.7796457361052185,0.24043403769274704,0.283845800826067,0.5396160914845823,0.39390034364261167,0.6041921664626684,0.4990326147042566,0.4423137876386688,0.4003676163422174
0.1868360277136259,0.24435981488623218,0.4284698352494963,0.7844717861688586,0.2388349514563107,0.2778797613584213,0.5343067183990198,0.3838774341351661,0.6016676866585068,0.49778883360972914,0.43973851030110933,0.3975687191912441
0.18637413394919172,0.2391534901658311,0.41661728102406065,0.7875477301654645,0.24397487150199892,0.269925042068227,0.523585868899326,0.3661225658648339,0.5916462668298653,0.4924451814999079,0.43470681458003174,0.39213802322666885
0.18931870669745962,0.2427689934438874,0.4194618940381652,0.7842066185829444,0.2455739577384352,0.2737494263423589,0.5219522156422299,0.3674112256586483,0.5946297429620563,0.4931822369633315,0.4355388272583201,0.3931406132508981
0.1957852193995381,0.2506748939452372,0.4256252222353917,0.7768879932117098,0.24900057110222734,0.2820100963744837,0.5295078619562997,0.38659793814432986,0.6063341493268054,0.49907868067072053,0.44144215530903336,0.3996992229927312
0.19878752886836032,0.2503856536829927,0.41875074078463903,0.775668222316504,0.2552826956025129,0.2795624904390393,0.5342046150704512,0.39218213058419243,0.6100826193390453,0.5028560899207666,0.4437400950871633,0.40341716099924807
0.1874133949191686,0.2432992672580023,0.4246770178973569,0.7847899872719558,0.24111936036550546,0.2758145938503901,0.5276700020420665,0.3737113402061855,0.6005201958384332,0.4988022848719367,0.43815372424722665,0.3977775921129585
0.17777136258660511,0.2413227921326649,0.43972976176366,0.7903054730589733,0.22432895488292406,0.27910356432614347,0.5197059424137227,0.35595647193585334,0.5931762545899633,0.49414962225907505,0.4339540412044375,0.39360013367866986
0.1817551963048499,0.24961434631700735,0.45181936707360437,0.78394145099703,0.22250142775556828,0.28958237723726477,0.5248111088421482,0.36669530355097363,0.5986077111383109,0.4968675142804497,0.437757527733756,0.39769404294427274
0.18591224018475752,0.257423833397609,0.4624866658764964,0.7777365294866355,0.22147344374643066,0.2992963132935597,0.5382887482131917,0.3891752577319587,0.6122246022031823,0.5052975861433573,0.44572107765451663,0.4059236360598212
0.1862009237875289,0.2582433474739684,0.46390897238354867,0.7771531607976241,0.22113078241005146,0.30036714089031663,0.5419644680416581,0.3987686139747995,0.6189565483476132,0.5108715680854984,0.449960380348653,0.4100593199097669
0.17488452655889147,0.25053027381411497,0.4681758919047055,0.786593126856173,0.2078812107367219,0.29562490439039313,0.5334898917704717,0.3860252004581901,0.6126835985312118,0.509812050856827,0.44849445324881143,0.4076363940178795
0.1727482678983834,0.2479271114539144,0.4661609576863814,0.7889796351294017,0.20662478583666483,0.29294783539850083,0.5239942822136001,0.37227949599083615,0.605875152998776,0.5085222037958357,0.44671156893819336,0.4059236360598212
0.18036951501154735,0.25568839182414194,0.46959819841175776,0.7811837081035213,0.21256424900057116,0.30013767783386874,0.5285889319991831,0.3813001145475372,0.6108476132190943,0.5123456790123457,0.4501584786053883,0.4101846436627955
0.1872401847575058,0.2634014654839954,0.474339220101932,0.7738120492151039,0.21713306681896066,0.30778644638213243,0.54114764141311,0.40048682703321875,0.6215575275397797,0.5188870462502304,0.45618066561014264,0.4169939009106859
0.1846997690531178,0.2633532587736213,0.4795543439611236,0.7750318201103097,0.21199314677327244,0.3094691754627505,0.5479885644272003,0.40893470790378006,0.6246940024479803,0.5230329832319882,0.45950871632329643,0.4202940930737739
0.17644341801385682,0.2564114924797532,0.4793172928766149,0.7826156130674585,0.20399771559109087,0.30388557442251796,0.5401266081274249,0.3911798396334479,0.6161260709914321,0.519624101713654,0.45661648177496045,0.4173698721697719
0.1741916859122402,0.25366370998843035,0.47742088420054524,0.7851612218922359,0.20262707024557397,0.301132017745143,0.5299162752705738,0.37113402061855666,0.6063341493268054,0.5135433941404091,0.4520998415213946,0.41335951207285493
0.17707852193995385,0.25843617431546473,0.4831101102287543,0.7811837081035213,0.20274129069103372,0.3067156187853755,0.5314478251991014,0.36898625429553267,0.6053396572827417,0.5138658559056569,0.4533280507131538,0.4143203275127412
0.183256351039261,0.2672580023139221,0.49211805144008536,0.7735468816291896,0.20456881781838954,0.31658253021263577,0.540535021441699,0.3808705612829324,0.6092411260709915,0.5187027823843744,0.45832012678288436,0.42016876932074526
0.18290993071593536,0.26802930967990746,0.4948441389119355,0.7732817140432753,0.2029697315819532,0.31811228392228846,0.5437002246273228,0.38029782359679265,0.6083996328029375,0.5198544315459739,0.4599841521394612,0.422800568134347
0.17511547344110856,0.26012340917855764,0.4911698471020505,0.7811837081035213,0.19703026841804686,0.3106164907449901,0.5340004084133143,0.3571019473081329,0.5951652386780906,0.5125299428782016,0.45380348652931857,0.4174534213384577
0.17263279445727484,0.2553509448515233,0.4846509422780609,0.7849490878235044,0.1977155910908053,0.30472693896282693,0.5246069021850113,0.33204467353951883,0.5813953488372093,0.5046987285793256,0.4475039619651347,0.41089481159662467
0.17245958429561203,0.2590628615503278,0.4941329856584094,0.7829868476877385,0.1929183323814963,0.31076946611595535,0.5290994486420257,0.3364833906071019,0.5817778457772338,0.5049290584116455,0.4483359746434232,0.41193917620519677
0.17765588914549657,0.2651369070574624,0.4985184307218205,0.7772592278319898,0.1958880639634495,0.31696496864004897,0.5452317745558505,0.3539518900343643,0.5891982864137086,0.5085222037958357,0.45217908082408875,0.4156571142117136
0.18083140877598156,0.26383532587736214,0.48868081071470904,0.7765167585914298,0.20388349514563112,0.3128346336239865,0.5570757606697978,0.3701317296678121,0.5943237454100367,0.5110558319513544,0.45431854199683047,0.41674325340462864
0.17782909930715937,0.2558330119552642,0.47505037335545813,0.7822974119643614,0.207424328954883,0.3020498699709347,0.5564631406983868,0.3631156930126002,0.5872858017135862,0.5075548185000922,0.4502377179080825,0.4129835408137689
0.1782332563510393,0.25501349787890476,0.4723242858836079,0.7825625795502757,0.20913763563677903,0.30052011626128194,0.5587094139268939,0.3542382588774341,0.5806303549571603,0.5045144647134697,0.44671156893819336,0.4091820536385663
0.18337182448036954,0.26287119166988043,0.4810951760104303,0.7758803563852354,0.2100513992004569,0.3095456631482331,0.5716765366550949,0.3669816723940435,0.5873623011015912,0.5071862907683804,0.4497622820919176,0.4116885286991394
0.18758660508083144,0.27072888546085616,0.49176247481332225,0.769622401357658,0.20902341519131928,0.3192595992045281,0.5937308556258933,0.393184421534937,0.6003671970624236,0.5132669983416253,0.4561014263074485,0.4175787450914863
0.18550808314087763,0.26860779020439646,0.49081427047528736,0.7717437420449724,0.207424328954883,0.31727091938197954,0.6106800081682663,0.41022336769759443,0.6082466340269278,0.517551133222775,0.4586370839936609,0.41945860138691615
0.18140877598152427,0.2587736212880833,0.47505037335545813,0.7790623674162069,0.21096516276413482,0.3043445005354138,0.6137431080253216,0.40492554410080184,0.60296817625459,0.5150635710337204,0.45495245641838356,0.4150304954465703
0.17459584295612013,0.2472522175086772,0.4605902572004267,0.788502333474756,0.21119360365505427,0.2905767171485391,0.6216050643250969,0.399914089347079,0.5971542227662179,0.5089828634604754,0.45063391442155315,0.4100593199097669
0.17453810623556584,0.2554473582722715,0.4808581249259215,0.7840475180313958,0.2013706453455169,0.30357962368058744,0.6385542168674698,0.4019186712485681,0.5953947368421052,0.5074166206007003,0.44908874801901744,0.40859720945776584
0.17857967667436492,0.2625337446972619,0.49022164276401564,0.7782668646584642,0.20079954311821818,0.31229921982560804,0.6610169491525423,0.40850515463917525,0.6038096695226438,0.5111940298507462,0.4532091917591125,0.41235692204862556
0.1741916859122402,0.26166602391052834,0.49709612421476823,0.7807594399660586,0.19326099371787553,0.3138289735352608,0.6730651419236267,0.3989117983963345,0.6009791921664627,0.5094435231251152,0.45229793977813,0.41302531539811177
0.16316397228637416,0.2541939838025453,0.5012445181936708,0.7899342384386933,0.18035408338092523,0.30923971240630255,0.6782724116806207,0.3622565864833906,0.5840728274173806,0.5001842638658559,0.4446117274167987,0.40642493107193584
0.15144341801385686,0.24749325106054762,0.5088301528979495,0.7990029698769622,0.16504854368932043,0.30633318035796236,0.6742903818664487,0.31887170675830473,0.5651009791921665,0.4900958172102451,0.4362519809825674,0.39761049377558694
0.15767898383371828,0.2562186656382569,0.5173639919402632,0.7913131098854476,0.16710451170759572,0.3160471164142573,0.6772513783949357,0.3071305841924399,0.5632649938800489,0.49046434494195695,0.43712361331220284,0.39857130921547335
0.16610854503464206,0.2663420748168145,0.5250681521867963,0.7819261773440814,0.17167332952598519,0.3265259293253786,0.6710230753522564,0.3092783505154639,0.5680844553243574,0.4939192924267552,0.44199683042789223,0.4040437797643913
0.17315242494226332,0.2687524103355187,0.516652838686737,0.7773122613491726,0.18275271273557972,0.32576105247055226,0.6438635899530324,0.30283505154639173,0.5667074663402693,0.4954394693200664,0.44389857369255153,0.4067591277466789
0.17615473441108548,0.2642209795603548,0.499348109517601,0.7784259652100127,0.19406053683609367,0.31650604252715314,0.5928119256687768,0.2739117983963345,0.5530905752753978,0.4908789386401327,0.43926307448494456,0.4023727963906759
0.1796189376443418,0.2581951407635943,0.4773023586582909,0.780176071277047,0.20810965162764142,0.30465045127734436,0.5387992648560342,0.2531500572737686,0.5383261933904528,0.4853049566979915,0.4345483359746435,0.39840421087810174
0.18845265588914553,0.2576166602391053,0.45774564418632213,0.776410691557064,0.22627070245573963,0.2979195349548723,0.5126608127424954,0.2650343642611684,0.5380966952264382,0.486364473926663,0.43561806656101426,0.4006600384326176
0.19867205542725178,0.25872541457770926,0.4394927106791514,0.7711073398387781,0.24523129640205601,0.2928713477130182,0.5218501123136614,0.3099942726231386,0.5503365973072215,0.49341256679565143,0.4405705229793978,0.4059236360598212
0.20167436489607393,0.25294060933281914,0.41910631741140214,0.7729104794229953,0.2580239862935466,0.28170414563255314,0.5221564222993669,0.3277491408934708,0.5523255813953488,0.49534733738713843,0.44104595879556263,0.40642493107193584
0.19705542725173214,0.24474546856922486,0.4084390186085102,0.7795396690708527,0.2585950885208453,0.2717607465198103,0.5114355727996732,0.32159221076746847,0.5428396572827417,0.4904182789754929,0.43613312202852617,0.4020385997159328
0.19243648960739032,0.2403586579251832,0.4070167121014578,0.7841005515485786,0.2547115933752142,0.2678598745601958,0.500816826628548,0.3118556701030928,0.5337362301101591,0.48618021006080714,0.43217115689381935,0.39840421087810174
0.19653579676674365,0.24527574238333977,0.4108095294535973,0.7795396690708527,0.2568817818389492,0.2729845494875325,0.5078619562997754,0.3205899198167239,0.5364137086903304,0.4879767827529022,0.4334786053882726,0.39990809591444565
0.2036374133949192,0.25053027381411497,0.4091501718620363,0.7733347475604582,0.2646487721302114,0.2765794707052165,0.5203185623851337,0.3337628865979381,0.5439106487148103,0.4917081260364843,0.43684627575277335,0.4038349068426769
0.19642032332563514,0.2480235248746626,0.4176840109043499,0.7780547305897326,0.2534551684751571,0.27734434756004284,0.528180518684909,0.3406357388316151,0.5444461444308445,0.49239911553344395,0.4376782884310618,0.4054641156320494
0.19030023094688225,0.2404068646355573,0.4116392082493778,0.7850551548578701,0.25025699600228446,0.26931314058436595,0.518991219113743,0.3190148911798396,0.531594247246022,0.4855813524967754,0.430784469096672,0.39827888712507314
0.18672055427251735,0.2385750096413421,0.41436529572122793,0.7877068307170131,0.24545973729297552,0.26877772678598744,0.5117418827853788,0.30140320733104237,0.523485312117503,0.48088262391744985,0.4267828843106181,0.3943938507811847
0.19053117782909934,0.24493829541072118,0.4223065070522698,0.78245651251591,0.24534551684751577,0.2764264953342512,0.5192975290994486,0.3056987399770905,0.5277692778457772,0.4830016583747927,0.4297939778129953,0.39731807168518674
0.1964780600461894,0.2527959892016969,0.42953656512978544,0.7754030547305897,0.24774414620217022,0.2849931161083066,0.531958341841944,0.3205899198167239,0.5370257037943696,0.4882531785516861,0.43530110935023775,0.4020385997159328
0.19370669745958433,0.2503856536829927,0.4291809885030224,0.7780016970725498,0.24523129640205601,0.28292794860027537,0.5362466816418214,0.3241695303550973,0.535189718482252,0.4874700571217984,0.43526148969889067,0.40187150137856126
0.1859699769053118,0.2401658310836869,0.4198174706649283,0.7871764955451845,0.24214734437464308,0.2717607465198103,0.5236879722278945,0.30168957617411224,0.5231028151774786,0.47963884282292246,0.42836767036450085,0.3942267524438132
0.1842956120092379,0.2376590821442345,0.4172099087353324,0.7893508697496817,0.24169046259280416,0.2690071898424354,0.5174596691852154,0.2899484536082474,0.5166768665850673,0.47489404827713294,0.4242472266244057,0.39096833486506805
0.1868360277136259,0.2415638256845353,0.42159535379874363,0.7860097581671617,0.24203312392918339,0.2734434756004283,0.5234837655707575,0.2959621993127148,0.521266829865361,0.4763220932375162,0.4263074484944533,0.3932659370039268
0.19053117782909934,0.24672194369456227,0.4266919521156809,0.7815019092066186,0.24328954882924045,0.2791800520116261,0.5348172350418623,0.30899198167239406,0.5289167686658507,0.480514096185738,0.4305071315372425,0.3975687191912441
0.1874133949191686,0.24652911685306594,0.43261822922839865,0.7829868476877385,0.2373500856653341,0.2810157564632094,0.5412497447416785,0.3107101947308133,0.5299877600979193,0.4821264050119772,0.43221077654516643,0.39752694460690113
0.17909930715935338,0.2397801774006942,0.43309233139741615,0.7905706406448875,0.2288977727013136,0.27573810616490746,0.5318562385133755,0.2945303550973654,0.52203182374541,0.47788833609729137,0.42749603803486536,0.392096248642326
0.17476905311778293,0.23659853451600465,0.4341590612777053,0.7942829868476877,0.22410051399200462,0.27359645097139357,0.5269552787420869,0.28350515463917525,0.5157588739290085,0.47388059701492546,0.423851030110935,0.38933912607569554
0.17829099307159355,0.24358850752024686,0.4441152068270713,0.7888205345778532,0.22272986864648778,0.28239253480189686,0.5374719215846436,0.2948167239404353,0.5228733170134638,0.47738161046618766,0.42749603803486536,0.39255576907009776
0.18573903002309472,0.2521693019668338,0.44992295839753466,0.7806533729316928,0.22729868646487725,0.29103564326143494,0.5490095977128854,0.31171248568155785,0.5327417380660955,0.48249493274368904,0.4332012678288431,0.39794469045033
0.17956120092378755,0.2493733127651369,0.45573070996799814,0.7850551548578701,0.2185037121644775,0.29072969251950437,0.5510516642842557,0.3151489117983963,0.5349602203182374,0.48424543946932014,0.4345879556259905,0.3991143788119308
0.17471131639722864,0.24108175858079448,0.4453004622496148,0.7918434450572761,0.21873215305539695,0.28070980572127885,0.5389013681846028,0.29352806414662086,0.5240208078335373,0.4778422701308274,0.42820919175911254,0.3938090066003843
0.17407621247113167,0.23775549556498266,0.43842598079886214,0.7939647857445905,0.2213592233009709,0.2758910815358727,0.5285889319991831,0.27949599083619703,0.5166768665850673,0.47415699281370927,0.4246434231378764,0.3914278552928398
0.18042725173210164,0.24112996529116854,0.43380348465094226,0.7891917691981332,0.2299257567104512,0.27703839681811226,0.5309373085562589,0.28508018327605955,0.5192013463892289,0.4754007739082366,0.4266244057052298,0.3936419082630128
0.18706697459584298,0.24522753567296568,0.4300106672988029,0.7838884174798473,0.23826384922901203,0.27910356432614347,0.5360424749846844,0.29338487972508587,0.525015299877601,0.47765800626497146,0.4303090332805072,0.3963990308296433
0.1868360277136259,0.24397416120323948,0.4276401564537158,0.7846839202375901,0.23917761279268993,0.27734434756004284,0.5346130283847254,0.2938144329896907,0.5247858017135862,0.4784871936613231,0.4303882725832013,0.39769404294427274
0.18545034642032335,0.23838218279984574,0.41661728102406065,0.7883962664403903,0.243061107938321,0.2693896282698485,0.5230753522564835,0.27548682703321875,0.5145348837209303,0.4729592776856459,0.42622820919175913,0.3932241624195839
0.18608545034642035,0.23905707674508292,0.4168543321085694,0.787759864234196,0.24363221016561967,0.269925042068227,0.5151112926281396,0.2601660939289805,0.5075734394124847,0.4689515386032799,0.42377179080824096,0.3901746177625533
0.18672055427251735,0.24585422290782877,0.43238117814389004,0.7837293169282986,0.23677898343803547,0.2803273672938657,0.5253216254849908,0.26703894616265744,0.5111689106487148,0.47097844112769494,0.42618858954041206,0.39330771158826966
0.1868360277136259,0.2522175086772079,0.44790802417921066,0.7801230377598642,0.22935465448315254,0.2904237417775738,0.5370635082703695,0.2793528064146621,0.5178243574051408,0.47521651004238075,0.43007131537242477,0.3969003258417579
0.1842956120092379,0.25053027381411497,0.44885622851724544,0.7822443784471786,0.22638492290119938,0.2893529141808169,0.5377782315703492,0.2832187857961054,0.518359853121175,0.4756771697070205,0.4305863708399366,0.39740162085387254
0.17811778290993074,0.2413227921326649,0.4390186085101339,0.7901463725074247,0.22501427755568248,0.2789505889551782,0.5268531754135184,0.26603665521191294,0.5082619339045288,0.46978072599963155,0.42488114104595887,0.39134430612415405
0.18036951501154735,0.2423833397608947,0.43688514874955553,0.7885553669919388,0.22832667047401492,0.27902707664066084,0.5208290790279763,0.25687285223367695,0.5023714810281518,0.4664639764142252,0.42183042789223457,0.38854540897318074
0.18481524249422637,0.2478306980331662,0.4411520682707123,0.7835171828595673,0.23061107938320963,0.28476365305185863,0.5268531754135184,0.26603665521191294,0.5063494492044064,0.4691818684355998,0.4250792393026942,0.39109365861809675
0.19093533487297923,0.25453143077516394,0.44506341116510606,0.7769940602460755,0.23483723586521993,0.29134159400336546,0.5376761282417807,0.2793528064146621,0.5149173806609547,0.47415699281370927,0.42975435816164825,0.39614838332358593
0.1876443418013857,0.24985537986887776,0.4403223894749318,0.7810776410691557,0.23392347230154203,0.2860639437050635,0.5361445783132529,0.2737686139747995,0.5135403916768666,0.4735120692832136,0.42852614896988905,0.3955217645584427
0.17678983833718245,0.23862321635171616,0.4349887400734858,0.7922677131947391,0.22569960022844096,0.2754321554229769,0.5219522156422299,0.2507159221076747,0.5008414932680538,0.4660493827160494,0.42123613312202857,0.3883365360514663
0.17580831408775985,0.23891245661396068,0.437714827545336,0.7925328807806533,0.2234151913192462,0.2765794707052165,0.5156218092709822,0.23782932416953034,0.4939565483476132,0.46291689699649907,0.4185419968304279,0.3866237780934079
0.18042725173210164,0.24585422290782877,0.4453004622496148,0.786593126856173,0.22432895488292406,0.28453418999541075,0.5227690422707779,0.2468499427262314,0.49961750305997554,0.4659111848166575,0.4221870047543582,0.3900910685938675
0.1853926096997691,0.25173544157346706,0.44956738177077166,0.7810776410691557,0.22718446601941755,0.2905767171485391,0.5349193383704308,0.2580183276059565,0.50734394124847,0.46968859406670355,0.42587163232963554,0.39360013367866986
0.18256351039260973,0.2497589664481296,0.45051558610880643,0.7834641493423843,0.22398629354654487,0.28927642649533425,0.5344088217275883,0.2504295532646048,0.5037484700122399,0.4682144831398563,0.42448494453248814,0.39205447405798316
0.17517321016166285,0.24228692634014656,0.4473153964679388,0.7909418752651676,0.21816105082809828,0.28239253480189686,0.518991219113743,0.2222222222222222,0.488984088127295,0.4607978625391561,0.41810618066561017,0.38545408973180717
0.17136258660508086,0.23920169687620516,0.4476709730947019,0.7944420873992363,0.21416333523700745,0.28002141655193513,0.5147028793138656,0.21148339060710192,0.48584761321909425,0.4582181684171734,0.41640253565768626,0.38399197927980616
0.17367205542725175,0.24320285383725415,0.45264904586938487,0.791154009333899,0.21404911479154773,0.28484014073734126,0.5263426587706759,0.22537227949599078,0.49319155446756424,0.4617191818684357,0.41945324881141044,0.38779346645500873
0.17725173210161665,0.25202468183571153,0.4669906364821619,0.7846308867204073,0.21073672187321538,0.29646626893070216,0.5283847253420461,0.2279495990836197,0.49296205630354956,0.46176524783489964,0.41929477020602224,0.3879605647923803
0.17332563510392612,0.24686656382568453,0.462368140334242,0.7892978362324989,0.20902341519131928,0.2908826678904696,0.5297120686134368,0.22436998854524628,0.4903610771113831,0.46061359867330026,0.418026941362916,0.3864566797560364
0.16408775981524254,0.2325009641342075,0.44589308996088656,0.8014425116673738,0.2078812107367219,0.274131864769772,0.518582805799469,0.20819014891179838,0.48079865361077107,0.4549935507646951,0.4114500792393027,0.3798562954298605
0.16449191685912243,0.2270053991515619,0.4316700248903639,0.8043063215952482,0.21507709880068537,0.2651828055683035,0.5192975290994486,0.2093356242840779,0.47980416156670747,0.45393403353602363,0.4100633914421553,0.3773915949536302
0.17199769053117786,0.23360971847281142,0.43261822922839865,0.797199830292745,0.22204454597372933,0.270766406608536,0.537165611598938,0.23267468499427263,0.49235006119951036,0.46061359867330026,0.41525356576862127,0.3826969671651767
0.17725173210161665,0.24233513305052065,0.4431670024890364,0.789987271955876,0.22227298686464883,0.2810157564632094,0.5587094139268939,0.2588774341351661,0.5061199510403916,0.4676616915422886,0.42044374009508717,0.38846185980449494
0.17476905311778293,0.2406478981874277,0.4441152068270713,0.7920555791260077,0.21930325528269565,0.28002141655193513,0.5649377169695732,0.2678980526918671,0.5104804161566707,0.46844481297217616,0.42135499207606975,0.38896315481660954
0.1700346420323326,0.2352005399151562,0.4404409150171862,0.7972528638099278,0.2164477441462022,0.2745143031971852,0.5648356136410047,0.265893470790378,0.5082619339045288,0.46674037221300907,0.4192155309033281,0.3859553847439218
0.17448036951501159,0.23838218279984574,0.4391371340523883,0.793434450572762,0.2213592233009709,0.2765794707052165,0.5734122932407596,0.2733390607101947,0.5133873929008568,0.4682605491063203,0.4201664025356577,0.38683265101512243
0.183891454965358,0.24922869263401468,0.4464857176721584,0.7831459482392872,0.22718446601941755,0.2875936974147162,0.5962834388401062,0.3035509736540664,0.5282282741738066,0.4745715865118851,0.4265055467511886,0.39255576907009776
0.1853348729792148,0.25385653682992676,0.45490103117221764,0.7799639372083156,0.2245573957738436,0.29401866299525775,0.6243618541964467,0.32660366552119124,0.5410801713586292,0.47954671088999445,0.43141838351822503,0.3965661291670148
0.17557736720554276,0.247107597377555,0.4583382718975939,0.7881310988544761,0.21324957167332959,0.2897353526082301,0.6394731468245863,0.32474226804123707,0.5402386780905752,0.47807259996314727,0.4293977812995246,0.39426852702815607
0.16483833718244806,0.2412263787119167,0.46604243214412705,0.7962982605006363,0.19885779554540264,0.2875936974147162,0.6383500102103328,0.2948167239404353,0.5270807833537332,0.4705177814630552,0.421473851030111,0.3877516918706659
0.1639145496535797,0.24358850752024686,0.47362806684840575,0.7954497242257106,0.1944031981724729,0.2918770078017439,0.6419236267102307,0.2706185567010309,0.518359853121175,0.4660493827160494,0.4171949286846276,0.3836160080207202
0.16148960739030024,0.2467701504049364,0.48642882541187626,0.7948133220195163,0.1858366647629926,0.29853143643873337,0.662752705738207,0.26159793814432986,0.516906364749082,0.4660493827160494,0.41731378763866883,0.38415907761717766
0.15831408775981526,0.2479753181642885,0.49591086879222473,0.7956088247772591,0.17806967447173047,0.3025852837693131,0.6770471717377986,0.25300687285223367,0.5168298653610771,0.4654965911184817,0.41822503961965135,0.3858300609908932
0.15687066974595845,0.24773428461241803,0.4982813796373119,0.7963512940178192,0.1754426042261565,0.30312069756769155,0.6750051051664283,0.2315292096219931,0.5108629130966952,0.4627326331306431,0.4162836767036451,0.3827805163338625
0.15842956120092383,0.24691477053605862,0.49306625577812013,0.7961391599490878,0.17955454026270706,0.30074957931772983,0.6457014498672656,0.2031786941580756,0.5000764993880049,0.4584945642159573,0.4123613312202853,0.37877015623694543
0.16743648960739033,0.2530370227535673,0.48962901505274387,0.7886084005091217,0.19017704169046265,0.3044974759063791,0.6056769450684092,0.18914662084765177,0.4958690330477356,0.45973834531048463,0.41319334389857376,0.3806500125323753
0.18117782909930719,0.26267836482838414,0.48524356998933277,0.7769940602460755,0.20582524271844665,0.31076946611595535,0.5741270165407392,0.19916953035509732,0.5039779681762546,0.4660493827160494,0.42040412044374015,0.3885036343888378
0.19613163972286377,0.2666795217894331,0.4642645490103118,0.7679253288078065,0.23072529982866938,0.3071745448982714,0.5373698182560751,0.20618556701030924,0.5063494492044064,0.4672931638105768,0.4235340729001585,0.3921797978110118
0.20028868360277138,0.26128037022753564,0.4424558492355103,0.7689859991514637,0.24534551684751577,0.295854367446841,0.5077598529712068,0.2120561282932417,0.5022184822521419,0.4666482402800811,0.42183042789223457,0.39101010944941095
0.1948614318706698,0.24633629001156962,0.4168543321085694,0.7796987696224013,0.2523129640205597,0.27573810616490746,0.49520114355727995,0.21162657502863688,0.49296205630354956,0.4618573797678276,0.41596671949286845,0.384409725123235
0.19924942263279447,0.24387774778249136,0.4018015882422662,0.7790093338990242,0.2638492290119932,0.2689307021569527,0.4945885235858689,0.21921534936998857,0.49288555691554464,0.4611203243044039,0.41525356576862127,0.38261341799649096
0.20958429561200928,0.2527477824913228,0.4023942159535379,0.7694102672889266,0.27378640776699037,0.2761205445923206,0.5064325096998162,0.24713631156930124,0.505125458996328,0.4681223512069284,0.42099841521394615,0.38837831063580913
0.21726327944572751,0.25843617431546473,0.4006163328197227,0.7627810776410691,0.28235294117647064,0.28009790423741776,0.5126608127424954,0.270475372279496,0.5136933904528763,0.4733738713838217,0.42563391442155313,0.39301528949786946
0.21576212471131642,0.2554473582722715,0.3963494132985658,0.765061518879932,0.2829240434037693,0.27635000764876855,0.5123545027567898,0.268184421534937,0.5097154222766217,0.47143910079233464,0.42408874801901747,0.3918038265519258
0.2086605080831409,0.2473486309294254,0.39089723835486545,0.7728044123886295,0.27846944603083956,0.26816582530212635,0.5030630998570553,0.2478522336769759,0.49678702570379435,0.4639303482587065,0.4178684627575278,0.38503634388837826
0.2080831408775982,0.2436367142306209,0.3831930781083323,0.7751378871446755,0.28155339805825247,0.26273519963285913,0.4980600367571982,0.23969072164948454,0.48990208078335373,0.46019900497512445,0.4148177496038035,0.38173615172529035
0.21183602771362592,0.24874662553027382,0.38793409979850657,0.7705770046669494,0.2830382638492291,0.26831880067309166,0.5072493363283643,0.24842497136311567,0.496328029375765,0.4632854247282108,0.41818541996830433,0.38453504887626366
0.2160508083140878,0.255736598534516,0.39646793884082016,0.7647963512940178,0.2831524842946888,0.2765794707052165,0.5177659791709209,0.256729667812142,0.5031364749082008,0.4669246360788649,0.4216719492868463,0.3878352410393517
0.2072170900692841,0.25188006170458926,0.4050017778831338,0.7710012728044123,0.27024557395773846,0.27635000764876855,0.5163365325709618,0.24942726231386023,0.5002294981640146,0.46545052515201774,0.42012678288431066,0.3860807084969505
0.19665127020785222,0.2429618202853837,0.4048832523408794,0.7807594399660586,0.2598515134209024,0.26916016521340064,0.5058198897284051,0.22880870561282932,0.48753059975520197,0.4601068730421965,0.4143819334389857,0.3796891970924889
0.1986143187066975,0.24199768607790206,0.3984828730591443,0.7803351718285956,0.2648772130211309,0.2664066085360257,0.5043904431284459,0.22379725085910654,0.4837056303549571,0.4575271789202138,0.41220285261489703,0.37734982036928727
0.20756351039260973,0.24874662553027382,0.39670498992532893,0.7725392448027153,0.27458595088520854,0.2711488450359492,0.5152133959567081,0.24198167239404353,0.49365055079559367,0.46277869909710706,0.4168779714738511,0.3817779263096332
0.21195150115473443,0.2558330119552642,0.4051203034253882,0.7666525243954179,0.274814391776128,0.2794860027535567,0.5249132121707167,0.2557273768613975,0.5021419828641371,0.46793808734107245,0.4211965134706815,0.3860389339126076
0.20837182448036953,0.25298881604319323,0.4054758800521512,0.7698345354263894,0.2711593375214164,0.27734434756004284,0.5199101490708596,0.24541809851088203,0.49602203182374544,0.46466740372213017,0.41850237717908084,0.3838248809424346
0.2028290993071594,0.24652911685306594,0.4009719094464857,0.7759333899024182,0.267846944603084,0.270766406608536,0.5093935062283029,0.22293814432989692,0.484547123623011,0.45941588354523677,0.4126386687797148,0.3783106358091737
0.19821016166281757,0.24537215580408794,0.4076093398127297,0.7786911327959269,0.26007995431182185,0.27199020957625825,0.5107208494996937,0.218213058419244,0.480875152998776,0.4579417726183896,0.40986529318542,0.3765143286824296
0.19942263279445732,0.2491804859236406,0.41460234680573665,0.776039456936784,0.25790976584808684,0.2772678598745602,0.518378599142332,0.23396334478808703,0.48944308445532436,0.4621337755666114,0.4134310618066561,0.37964742250814604
0.20034642032332564,0.25284419591207097,0.42159535379874363,0.7735999151463725,0.2555111364934324,0.28239253480189686,0.5274657953849294,0.2507159221076747,0.49678702570379435,0.4655426570849457,0.4178684627575278,0.38215389756871915
0.19347575057736724,0.24836097184728118,0.4246770178973569,0.7792214679677555,0.24717304397487155,0.2798684411809699,0.5240963855421686,0.24713631156930124,0.4938035495716034,0.46425281002395435,0.4166006339144216,0.3810259837914613
0.18637413394919172,0.24055148476667954,0.41993599620718264,0.7867522274077217,0.24249000571102233,0.2721431849472235,0.5116397794568103,0.22666093928980527,0.4831701346389229,0.45895522388059706,0.4112123613312203,0.3750522182304286
0.18348729792147808,0.239683763979946,0.4238473391015764,0.7886084005091217,0.23769274700171333,0.27267859874560196,0.5092914028997345,0.22293814432989692,0.4817931456548347,0.4584945642159573,0.40994453248811413,0.3746762469713426
0.1912817551963049,0.2473486309294254,0.4268104776579353,0.7808124734832413,0.24397487150199892,0.27979195349548724,0.5196038390851542,0.24183848797250856,0.49273255813953487,0.46452920582273816,0.41517432646592717,0.3804411396106609
0.19693995381062357,0.25337446972618594,0.42989214175654855,0.7748727195587611,0.24808680753854948,0.28552852990668504,0.5274657953849294,0.25386597938144334,0.5000764993880049,0.4693200663349917,0.41965134706814583,0.38466037262929237
0.19705542725173214,0.25260316236020053,0.42775868199597017,0.7752439541790411,0.24922901199314684,0.2842282392534802,0.5218501123136614,0.24570446735395188,0.4952570379436964,0.46720103187764883,0.4177496038034865,0.38186147547831895
0.1958429561200924,0.2469629772464327,0.4164987554818063,0.7789032668646584,0.2534551684751571,0.2761205445923206,0.5087808862568919,0.224942726231386,0.4850826193390453,0.4614888520361157,0.41251980982567354,0.3766396524354582
0.19896073903002312,0.2432992672580023,0.4009719094464857,0.7794866355536699,0.2639634494574529,0.268242312987609,0.5072493363283643,0.22680412371134018,0.48378212974296203,0.461166390270868,0.4128367670364501,0.3770156236945442
0.20669745958429564,0.25269957578094876,0.4082019675240014,0.7707361052184981,0.2681896059394632,0.2779562490439039,0.513783949356749,0.24198167239404353,0.48806609547123625,0.4646213377556661,0.41652139461172744,0.38039936502631794
0.20704387990762127,0.25829155418434246,0.4213583027142349,0.7675540941875264,0.26213592233009714,0.2866758451889246,0.5195017357565856,0.24498854524627722,0.49372705018359847,0.4656808549843376,0.41917591125198095,0.3821956721530621
0.19555427251732105,0.2526513690705746,0.43095887163683777,0.7759333899024182,0.24614505996573394,0.2852990668502371,0.5157239125995507,0.22823596792668954,0.48753059975520197,0.46102819237147596,0.41592709984152143,0.3783106358091737
0.18487297921478063,0.24426340146548403,0.43226265260163566,0.7854263894781501,0.23495145631067968,0.27902707664066084,0.5058198897284051,0.20790378006872853,0.47659118727050187,0.4544407591671274,0.4102218700475436,0.37204444815774085
0.1855658198614319,0.24484188198997303,0.43226265260163566,0.7847899872719558,0.23563677898343807,0.2794860027535567,0.5049009597712885,0.2058991981672394,0.47590269277845776,0.45393403353602363,0.4100237717908083,0.37116718188654024
0.1939376443418014,0.25269957578094876,0.4345146379044684,0.7766228256257955,0.24283266704740156,0.2865228698179593,0.5146007759852971,0.224942726231386,0.4859241126070991,0.46047540077390825,0.4157290015847861,0.3759712590859721
0.1998267898383372,0.2577612803702275,0.43475168898897715,0.7711073398387781,0.24865790976584815,0.2905767171485391,0.5237900755564631,0.23697021764032075,0.49158506731946144,0.46388428229224254,0.41977020602218706,0.3789790291586599
0.19890300230946883,0.25385653682992676,0.42692900320018967,0.7737059821807382,0.2515134209023415,0.2849166284228239,0.5180722891566264,0.22608820160366552,0.48821909424724597,0.46061359867330026,0.41794770206022186,0.37638900492940097
0.19001154734411088,0.24633629001156962,0.4268104776579353,0.7819261773440814,0.2427184466019418,0.2789505889551782,0.5111292628139678,0.2093356242840779,0.47980416156670747,0.45623733185922244,0.413946117274168,0.37308881276631295
0.19237875288683606,0.24681835711531044,0.4231361858480503,0.780547305897327,0.24683038263849233,0.2781857121003518,0.5106187461711251,0.20160366552119127,0.47773867809057524,0.455131748664087,0.41208399366085585,0.37204444815774085
0.20392609699769057,0.2567007327419977,0.4238473391015764,0.7698345354263894,0.25790976584808684,0.28621691907602875,0.5219522156422299,0.22265177548682702,0.48814259485924105,0.4620416436336835,0.41877971473851033,0.3780599883031164
0.2093533487297922,0.2641245661396066,0.4308403460945834,0.7632583792957148,0.2599657338663621,0.2943246137371883,0.5303246885848478,0.23739977090492556,0.49556303549571606,0.4672470978441128,0.4239698890649763,0.3835742334363773
0.2067551963048499,0.2645584265329734,0.43724072537631853,0.7642129826050064,0.25425471159337526,0.29677221967263273,0.5294057586277313,0.23668384879725082,0.49739902080783355,0.46747742767643274,0.42349445324881146,0.38223744673740495
0.1905889145496536,0.26590821442344775,0.47374659239066014,0.7708952057700467,0.2206739006282125,0.30962215083371575,0.540943434755973,0.25916380297823594,0.5122399020807833,0.47130090289294274,0.4228209191759113,0.3777675662127162
0.17598152424942268,0.272367913613575,0.5194974517008415,0.7740772168010182,0.18412335808109656,0.3295089490592015,0.5817847661833775,0.37471363115693007,0.5715269277845777,0.4964989865487378,0.4338748019017433,0.38186147547831895
0.17898383371824483,0.29039722329348244,0.5577812018489985,0.7627810776410691,0.168703597944032,0.35620315129264185,0.6334490504390442,0.5581328751431843,0.6693696450428397,0.5453289110005528,0.4625198098256736,0.40137020636644666
0.1895496535796767,0.32255109911299656,0.6151475643001066,0.740188799321171,0.15145631067961166,0.40018357044515834,0.6438635899530324,0.6509163802978235,0.7423500611995104,0.59765984890363,0.5072107765451664,0.4421004261007603
0.21408775981524253,0.3481970690320093,0.6278297973213227,0.7148387781077641,0.16973158195316967,0.4246596297996023,0.5871962425975087,0.5987972508591065,0.7561199510403916,0.6421135065413673,0.566798732171157,0.5076447489347481
0.2599307159353349,0.37070960277670656,0.5890719450041484,0.6813746287653797,0.23369503141062253,0.4299372800979042,0.5085766795997549,0.5525486827033218,0.7899326805385557,0.7191818684355998,0.6673930269413629,0.6206449995822542
0.3527136258660508,0.40720208252988815,0.488325234087946,0.6186890114552396,0.3740719588806397,0.4264188465657029,0.4063712477026751,0.5246277205040092,0.8544981640146878,0.8368804127510597,0.8160063391442156,0.7873673656947113
0.44595842956120096,0.4386810644041651,0.37430366243925567,0.5585490029698769,0.5211878926327813,0.4146397430013768,0.30998570553400034,0.48983390607101945,0.8902233782129743,0.925879859959462,0.9334389857369255,0.9208789372545744
0.5126443418013857,0.4554569996143463,0.27865354983999047,0.5187208315655494,0.6332381496287837,0.39704757534037016,0.2180927098223402,0.42053264604810997,0.8458537331701347,0.934033536023586,0.9701664025356578,0.9713426351407803
0.5071593533487299,0.4574816814500579,0.29489154912883725,0.5201527365294867,0.6199885779554541,0.40393146703380756,0.18787012456606084,0.35123138602520043,0.7447980416156671,0.8454947484798233,0.8956022187004755,0.9069680006683933
0.44168591224018483,0.4362707288854608,0.3771482754533602,0.5618901145523971,0.5155910908052542,0.4135689154046199,0.22636307943638959,0.23668384879725082,0.5558445532435741,0.6416528468767275,0.6993264659270999,0.7231598295596958
0.3611431870669746,0.35412649440802163,0.3405238828967642,0.6440390326686466,0.45356938892061693,0.33662230380908675,0.3541964468041658,0.20031500572737684,0.3621481028151775,0.40653215404459186,0.45047543581616484,0.475478318990726
0.2524249422632795,0.25376012340917853,0.31693729998814746,0.7492044972422571,0.357395773843518,0.2494263423588802,0.5424749846845007,0.2468499427262314,0.22123623011015908,0.19117376082550214,0.20526941362916007,0.22061157991477984
0.12488452655889147,0.18357115310451214,0.406068507763423,0.8463619007212558,0.1882352941176471,0.22242618938350925,0.7157443332652643,0.3263172966781214,0.1686811505507956,0.07656163626312883,0.06628367670364504,0.0737739159495363
0.055369515011547334,0.1431739298110297,0.44956738177077166,0.9005091217649555,0.0985722444317533,0.20445158329508947,0.7884419032060445,0.31171248568155785,0.1495563035495716,0.058043117744610316,0.04136291600633914,0.04223410477065755
0.04624711316397232,0.12437331276513691,0.422069455967761,0.9150403054730588,0.1027984009137636,0.18066391310998928,0.8541964468041657,0.47852233676975947,0.25313647490820074,0.13801363552607337,0.1015055467511886,0.08488595538474392
0.05011547344110854,0.15146548399537216,0.4808581249259215,0.8983877810776411,0.07824100513992004,0.22112589873030444,0.9183173371451909,0.6546391752577319,0.3940483476132191,0.24414962225907502,0.18736133122028525,0.15502548249644918
0.07344110854503468,0.19109139992286925,0.5302832760459879,0.8658782350445482,0.07755568246716162,0.26854826372953955,0.9255666734735551,0.736111111111111,0.4682527539779681,0.3202045328911001,0.2608161648177496,0.2213635224329518
0.09803695150115475,0.20902429618202853,0.5238828967642526,0.8447178616885872,0.1049685893774986,0.2806333180357962,0.8794159689605879,0.6806987399770905,0.456624847001224,0.3537405564768749,0.3044770206022187,0.2648926393182388
0.10854503464203236,0.20772271500192827,0.498992532890838,0.8405812473483241,0.1273557966876071,0.271607771148845,0.8590974065754543,0.6799828178694157,0.48378212974296203,0.3872305140961858,0.3351030110935024,0.2921714428941432
0.1163972286374134,0.20675858079444656,0.4806210738414128,0.8375053033517182,0.14403198172472875,0.2649533425118556,0.8204002450479886,0.6562142038946163,0.5261627906976744,0.42219458264234383,0.361014263074485,0.3141030996741582
0.12528868360277137,0.21625530273814114,0.48571767215835016,0.8281714043275349,0.15031410622501434,0.274131864769772,0.7639371043496017,0.5010022909507446,0.5243268053855569,0.4381334070388797,0.37682250396196515,0.32918372462194
0.14012702078521944,0.2346220593906672,0.5005333649401447,0.8113067458633857,0.15785265562535697,0.29340676151139666,0.7251378394935675,0.3848797250859107,0.5199663402692778,0.44670167680117934,0.3888668779714739,0.3413819032500627
0.15144341801385686,0.2475414577709217,0.5089486784402039,0.7990029698769622,0.16493432324386068,0.306409668043445,0.6875638145803553,0.31199885452462767,0.5185893512851897,0.4513543394140409,0.39663232963549927,0.3488595538474392
0.1561200923787529,0.24874662553027382,0.5023112480739599,0.7961921934662707,0.17281553398058255,0.3051858650757228,0.6395752501531549,0.26517754868270327,0.5093329253365972,0.4496038326884098,0.3969889064976228,0.3494026234438967
0.1561200923787529,0.23867142306209024,0.4775394097427995,0.801707679253288,0.18480868075385498,0.28927642649533425,0.5814784561976719,0.22766323024054985,0.4917380660954712,0.44398378477980477,0.39231378763866875,0.3451416158409224
0.1622401847575058,0.2325491708445816,0.44992295839753466,0.8022380144251167,0.20411193603655056,0.2755086431084595,0.5428833979987747,0.2183562428407789,0.4831701346389229,0.4416344204901419,0.3909667194928685,0.34347063246720694
0.17101616628175523,0.23172965676822213,0.42989214175654855,0.7986847687738651,0.22238720731010853,0.26839528835857424,0.5468654278129467,0.24570446735395188,0.49166156670746636,0.44601068730421967,0.3956022187004755,0.3468961483833236
0.1723441108545035,0.2279213266486695,0.41792106198885853,0.8001697072549852,0.22958309537407198,0.26143490897965427,0.5522769042270778,0.26159793814432986,0.4971695226438188,0.44900497512437815,0.3979001584786054,0.34956972178126827
0.16570438799076215,0.22088314693405325,0.41412824463671916,0.8071170980059397,0.22478583666476304,0.25462750497169956,0.54594649785583,0.25257731958762886,0.4905140758873929,0.44665561083471533,0.39480982567353406,0.34626952961818025
0.16154734411085453,0.21514654839953723,0.4084390186085102,0.8121552821383113,0.2234151913192462,0.24827902707664065,0.5335919950990402,0.2402634593356243,0.4815636474908201,0.44274000368527733,0.39049128367670366,0.3421338457682346
0.16420323325635106,0.21413420748168147,0.4006163328197227,0.8114658464149342,0.2298115362649915,0.24499005660088727,0.5329793751276292,0.24412943871706755,0.48118115055079563,0.4423254099871015,0.39025356576862125,0.34250981702732053
0.16968822170900696,0.21962977246432705,0.4028683181225554,0.8059503606279168,0.2341519131924615,0.2500382438427413,0.5465591178272411,0.2597365406643757,0.4905140758873929,0.4474387322646029,0.39449286846275755,0.3465201771242376
0.17321016166281758,0.22295603548013884,0.4036979969183359,0.8025031820110309,0.23723586521987441,0.25294477589108155,0.5534000408413313,0.2650343642611684,0.4944155446756426,0.44776119402985076,0.39615689381933444,0.34656195170858045
0.16737875288683604,0.21774971075973779,0.4028683181225554,0.8080186677980483,0.23186750428326675,0.24858497781857122,0.5486011843986114,0.25214776632302405,0.4861536107711138,0.4420490141883177,0.3912044374009509,0.3417160999248057
0.1575635103926097,0.20902429618202853,0.4016830627000118,0.8173525668222316,0.22272986864648778,0.24124216001223803,0.5377782315703492,0.22895189003436425,0.47391370869033045,0.4349548553528654,0.3847068145800317,0.33453087141782933
0.1591224018475751,0.2096991901272657,0.4001422306507052,0.8162918964785744,0.22501427755568248,0.24124216001223803,0.5402287114559934,0.22666093928980527,0.47200122399020805,0.4353694490510411,0.38450871632329636,0.3322332692789707
0.16472286374133951,0.2185210181257231,0.4103354272845798,0.8088141705557912,0.2255853797829812,0.25156799755239406,0.554727384112722,0.2461340206185567,0.4804926560587515,0.4401142435968307,0.388312202852615,0.3365778260506308
0.16535796766743652,0.22184728114153493,0.4172099087353324,0.8067458633856597,0.22295830953740725,0.2564632094232828,0.5656524402695527,0.2565864833906071,0.48691860465116277,0.4426939377188134,0.38938193343898575,0.33958559612331857
0.16270207852194,0.21567682221365214,0.4074908142704753,0.8113597793805685,0.22501427755568248,0.24843200244760594,0.5613641004696753,0.24198167239404353,0.47796817625459,0.43702782384374433,0.3837559429477021,0.33415490015874344
0.15433025404157044,0.20598727342846124,0.4008533839042313,0.8204815443360204,0.21998857795545407,0.23856509102034573,0.5531958341841944,0.21921534936998857,0.46542227662178703,0.4294269393771882,0.3763866877971474,0.32671902414570975
0.1534064665127021,0.20622830698033165,0.4033424202915728,0.8207997454391175,0.21781838949171908,0.23955943093162002,0.5556463140698387,0.2156357388316151,0.464657282741738,0.4287359498802285,0.37460380348652933,0.32550756119976604
0.1573903002309469,0.21143463170073276,0.4079649164394927,0.8161327959270258,0.21953169617361512,0.24514303197185255,0.568511333469471,0.2279495990836197,0.4724602203182374,0.4325594250967386,0.3788827258320127,0.32918372462194
0.151905311778291,0.2118684920940995,0.4202915728339457,0.818360203648706,0.2082238720731011,0.24950283004436286,0.5759648764549724,0.2306701030927835,0.4751376988984088,0.4320987654320988,0.3795958795562599,0.33018631464616927
0.14272517321016168,0.20483031237948324,0.421713879340998,0.8264743317776835,0.19840091376356372,0.24437815511702615,0.5725954666122115,0.21892898052691864,0.46687576499388,0.4264787175234937,0.37464342313787635,0.3245467457598797
0.1357390300230947,0.19885268029309683,0.42159535379874363,0.8329444208739923,0.19154768703597946,0.23963591861710268,0.5688176434551766,0.20475372279495993,0.45884332925336596,0.4204901418831768,0.368581616481775,0.31711086974684605
0.1371824480369515,0.20150404936367142,0.4250325945241199,0.8308761137038608,0.19131924614506002,0.24277191372189078,0.5738207065550337,0.21176975945017185,0.46075581395348836,0.42053620784964074,0.3683042789223455,0.31669312390341714
0.14197459584295616,0.2094581565753953,0.43487021453123154,0.8242999575731862,0.19131924614506002,0.2522563867217378,0.5882172758831937,0.2306701030927835,0.47062423500612,0.4269854431545974,0.37282091917591126,0.32116300442810597
0.14220554272517325,0.21249517932896259,0.4416261704397298,0.822496817988969,0.1882352941176471,0.25692213553617865,0.5967939554829487,0.23739977090492556,0.47529069767441856,0.4285977519808366,0.37373217115689383,0.3219984961149637
0.13666281755196308,0.2091689163131508,0.4449448856228518,0.8268455663979635,0.18126784694460313,0.2553158941410433,0.590667755768838,0.22007445589919816,0.4674112607099143,0.4229316381057675,0.36905705229793984,0.3174450664215891
0.13088914549653582,0.2027092171230235,0.44091501718620363,0.8331035214255409,0.17738435179897205,0.24889092856050174,0.5819889728405145,0.20260595647193583,0.4571603427172583,0.4169891284319145,0.36220285261489704,0.3115130754448993
0.13377598152424944,0.2028538372541458,0.4353443167002489,0.8316716164616038,0.1829811536264992,0.24720819947988373,0.5814784561976719,0.2014604810996564,0.4553243574051407,0.4160217431361711,0.3602614896988907,0.30833820703484
0.14284064665127022,0.20806016197454685,0.42953656512978544,0.8246711921934662,0.1947458595088521,0.24950283004436286,0.5909740657545436,0.21048109965635736,0.45937882496940025,0.41731159019716235,0.3613708399366086,0.30934079705906925
0.14745958429561204,0.20579444658696494,0.41436529572122793,0.8237696224013576,0.20662478583666483,0.24277191372189078,0.5961813355115376,0.21062428407789233,0.46167380660954715,0.4176801179288742,0.3618858954041205,0.31021806333026986
0.14006928406466515,0.20328769764751256,0.4234917624748133,0.828542638947815,0.1949743003997716,0.2436897659476824,0.5829079027976312,0.18528064146620846,0.44744492044063644,0.4099871015293901,0.3549920760697306,0.3038265519258083
0.13354503464203238,0.20121480910142692,0.43178855043261827,0.832679253288078,0.18446601941747576,0.24476059354443935,0.5706555033694098,0.1595074455899198,0.4352050183598531,0.4015570296664825,0.3475832012678288,0.29618180299106023
0.13013856812933028,0.19793675279598918,0.43072182055232905,0.836073398387781,0.18161050828098235,0.2417775738106165,0.5737186032264652,0.15120274914089346,0.431609547123623,0.39865487377925196,0.34358161648177493,0.2930904837496867
0.13418013856812935,0.20526417277284997,0.4404409150171862,0.8301336444633007,0.18092518560822393,0.25080312069756766,0.5843373493975903,0.15965063001145474,0.43811199510403914,0.4007739082365948,0.3450871632329636,0.2953463113042025
0.13314087759815246,0.20680678750482068,0.446367192129904,0.8298154433602036,0.17704169046259285,0.2539391158023558,0.5896467224831529,0.15549828178694158,0.438953488372093,0.3993458632762116,0.3455625990491284,0.29509566379814517
0.12240184757505777,0.19962398765908215,0.45075263719331515,0.8386720407297412,0.164363221016562,0.2496558054153281,0.5791300796405963,0.13273195876288657,0.4270195838433293,0.3917449788096554,0.3407290015847861,0.28882947614671234
0.11564665127020786,0.19562283069803318,0.45478250562996325,0.8439753924480271,0.15568246716162196,0.2477436132782622,0.5674903001837859,0.11168384879725089,0.4165391676866585,0.38589460106873047,0.3344690966719493,0.28310635809173695
0.1149538106235566,0.1958156575395295,0.4566789143060329,0.8441875265167587,0.15408338092518561,0.24850849013308857,0.568511333469471,0.10996563573883167,0.41546817625459,0.38621706283397833,0.3335974643423138,0.28289748517002256
0.12240184757505777,0.20434824527574239,0.4622496147919877,0.836073398387781,0.1587664191890349,0.25707511090714397,0.5805595262405554,0.12514318442153488,0.4241891064871481,0.39156071494379957,0.3378367670364501,0.2884117303032835
0.12603926096997692,0.21085615117624373,0.47102050491881003,0.8308230801866779,0.15819531696173617,0.26510631788282085,0.5829079027976312,0.12628865979381443,0.42694308445532436,0.3930808918371108,0.33886687797147386,0.28995738992397024
0.1185334872979215,0.20680678750482068,0.476354154320256,0.8364976665252438,0.14814391776127928,0.2635765641731681,0.5692260567694507,0.10509736540664379,0.4162331701346389,0.38566427123641056,0.3334786053882726,0.28465201771242377
0.11125866050808317,0.20391438488237562,0.4841768401090435,0.8414297836232499,0.13717875499714455,0.26380602722961605,0.5592199305697365,0.08233104238258876,0.40735924112607097,0.3803666850930533,0.32888272583201267,0.2799314896816777
0.1132794457274827,0.20598727342846124,0.4851250444470784,0.8393614764531183,0.13877784123358083,0.2657947070521646,0.5594241372268736,0.07660366552119127,0.40781823745410034,0.38161046618758065,0.33054675118858956,0.2813936001336787
0.12147806004618941,0.21432703432317782,0.48879933625696337,0.8310352142554094,0.14505996573386643,0.273519963285911,0.5673881968552174,0.08605383734249712,0.41615667074663404,0.3866777224986181,0.33605388272583203,0.2875762386164258
0.12390300230946885,0.21967797917470114,0.49709612421476823,0.8269516334323291,0.14346087949743008,0.28048034266483096,0.5673881968552174,0.08419243986254295,0.41806915544675644,0.3877833056937535,0.33862916006339144,0.29087643077951375
0.11437644341801387,0.21413420748168147,0.5029038757852317,0.8343763258379295,0.1312392918332382,0.2779562490439039,0.5484990810700429,0.059564719358533746,0.40582925336597303,0.3818868619863645,0.3344294770206023,0.2871584927729969
0.11172055427251734,0.21177207867335132,0.5025482991584687,0.8369219346627068,0.12872644203312394,0.27596756922135535,0.5364508882989585,0.04553264604810992,0.39917380660954715,0.3783397825686383,0.3309825673534073,0.2841507227003091
0.11333718244803698,0.21413420748168147,0.5050373355458101,0.8348536274925752,0.1291833238149629,0.27864463821324764,0.5368593016132325,0.04567583046964487,0.4031517747858017,0.3813340703887968,0.3324881141045959,0.2864483248391678
0.11847575057736721,0.21905129193983802,0.5065781675951168,0.8298154433602036,0.13352370074243294,0.28308092397124063,0.5471717377986522,0.06371706758304697,0.41539167686658507,0.38718444812972175,0.33831220285261493,0.2927145124906007
0.12072748267898387,0.22199190127265717,0.5091857295247125,0.8271637675010606,0.1344374643061108,0.28621691907602875,0.5440065346130284,0.07130584192439865,0.4222766217870257,0.39077759351391195,0.341877971473851,0.29618180299106023
0.11512702078521941,0.21586964905514847,0.5055114377148275,0.833050487908358,0.13078241005139923,0.2801743919229004,0.5352256483561364,0.06844215349369989,0.42151162790697677,0.390731527547448,0.3415610142630745,0.2955969588102598
0.11322170900692842,0.212157732356344,0.5004148393978902,0.8359673313534153,0.1313535122786979,0.27558513079394215,0.5341025117418827,0.07331042382588777,0.4238066095471236,0.39215957250783123,0.34207606973058635,0.2954298604728883
0.11778290993071595,0.21567682221365214,0.4997036861443641,0.8319898175647009,0.13615077098800685,0.2781092244148692,0.5420665713702266,0.09636311569301259,0.43727050183598526,0.4000829187396352,0.3480982567353408,0.30081878185312055
0.12598152424942266,0.2243540300809873,0.5042076567500297,0.8234514212982605,0.14209023415191324,0.28644638213247664,0.5619767204410864,0.13545246277205042,0.4589198286413709,0.4120140040538051,0.3572900158478606,0.31030161249895566
0.12909930715935336,0.22864442730428075,0.508356050728932,0.8196330080610945,0.1432324386065106,0.2911886186324002,0.5713702266693894,0.16308705612829327,0.4774326805385557,0.4221024507094159,0.3653724247226625,0.317486841005932
0.12523094688221711,0.22502892402622449,0.5074078463908972,0.8233983877810775,0.1398058252427185,0.2880526235276121,0.5675924035123544,0.17196449026345936,0.4870716034271726,0.42657084945642165,0.36905705229793984,0.3212047790124488
0.12211316397228639,0.22281141534901658,0.508356050728932,0.8260500636402205,0.13626499143346663,0.2865993575034419,0.5682050234837654,0.18685567010309279,0.49671052631578944,0.43357287635894604,0.3734944532488114,0.3253822374467374
0.1292725173210162,0.23100655611261087,0.5138082256726324,0.8182541366143402,0.14071958880639637,0.2948600275355668,0.5866857259546661,0.2275200458190149,0.5188188494492044,0.4478993919292428,0.38538034865293186,0.33490684267691534
0.13631639722863745,0.23746625530273816,0.5152305321796847,0.8114658464149342,0.1470017133066819,0.3004436285757993,0.6106800081682663,0.2663230240549828,0.5449816401468788,0.4620416436336835,0.39730586370839943,0.34610243128080875
0.13648960739030025,0.24079251831854992,0.5230532179684722,0.8095566397963513,0.14346087949743008,0.305568303503136,0.6267102307535225,0.286368843069874,0.5605875152998776,0.47268288188686197,0.40625990491283676,0.3557523602640154
0.13273672055427255,0.24320285383725415,0.5368021808699774,0.8099809079338142,0.133066818960594,0.3119932690836775,0.626812334082091,0.2793528064146621,0.5630354957160343,0.4758614335728764,0.41077654516640255,0.3595956220235609
0.12748267898383375,0.2407443116081759,0.5414246770178973,0.8136932541366143,0.12564249000571107,0.3115343429707817,0.6236471308964672,0.2638888888888889,0.5611995104039167,0.47692095080154784,0.41287638668779714,0.36143370373464784
0.12938799076212473,0.24378133436174315,0.544980443285528,0.811147645311837,0.12587093089663054,0.315052776502983,0.6336532570961813,0.26174112256586485,0.5678549571603427,0.4841533075363922,0.4199286846275753,0.3682847355668811
0.13672055427251736,0.25202468183571153,0.5500770416024654,0.803245651251591,0.13055396916047973,0.3232369588496252,0.6419236267102307,0.2717640320733104,0.5821603427172583,0.49534733738713843,0.4317749603803487,0.37964742250814604
0.13672055427251736,0.2552063247204011,0.5580182529335072,0.8014955451845566,0.12678469446030843,0.32836163377696187,0.6460077598529712,0.2711912943871707,0.5871328029375764,0.49926294453657644,0.43815372424722665,0.38570473723786447
0.13042725173210162,0.24961434631700735,0.5571885741377266,0.8074883326262197,0.12095945174186182,0.3236193972770384,0.6352869103532774,0.2534364261168384,0.5777233782129743,0.49382716049382724,0.4339540412044375,0.38165260255660455
0.12528868360277137,0.24513112225221753,0.5568329975109636,0.81231438268986,0.1160479725870931,0.3199479883738718,0.6229324075964876,0.23439289805269184,0.567625458996328,0.4878385848535103,0.428446909667195,0.37638900492940097
0.1303117782909931,0.24874662553027382,0.5552921654616569,0.8080186677980483,0.12175899486007999,0.32231910662383356,0.6229324075964876,0.23525200458190146,0.5694614443084455,0.48862170628339785,0.4295562599049129,0.3773915949536302
0.14272517321016168,0.25949672194369455,0.5561218442574375,0.7964043275350021,0.13363792118789267,0.3311151904543368,0.6241576475393098,0.25386597938144334,0.5796358629130968,0.4969596462133776,0.43878763866877973,0.3862895814186649
0.14896073903002313,0.2663902815271886,0.5603887637785943,0.7897221043699617,0.1377498572244432,0.3379990821477742,0.6098631815397182,0.268184421534937,0.5882802937576499,0.5071402248019163,0.4487717908082409,0.3959395104018715
0.1517321016166282,0.2623409178557655,0.5447433922010192,0.7906767076792532,0.14802969731581958,0.3297384121156494,0.5725954666122115,0.2587342497136311,0.5818543451652387,0.5084300718629077,0.44992076069730585,0.39815356337204444
0.1506928406466513,0.2547724643270343,0.5282683418276639,0.7953436571913449,0.15499714448886354,0.3183417469787364,0.5280784153563405,0.25014318442153494,0.5744339045287638,0.5072784227013084,0.45075277337559433,0.39886373130587355
0.15883371824480372,0.2510123409178558,0.5023112480739599,0.7936465846414934,0.17555682467161626,0.3070215695273061,0.4865223606289565,0.25214776632302405,0.5684669522643819,0.5061728395061729,0.4520998415213946,0.4009106859386749
0.1723441108545035,0.2521210952564597,0.47742088420054524,0.7868582944420873,0.20079954311821818,0.2999082147774208,0.48499081070042876,0.2948167239404353,0.5781823745410036,0.5125299428782016,0.45816164817749605,0.40751107026485084
0.17384526558891458,0.24435981488623218,0.4551380822567263,0.7904645736105218,0.2131353512278698,0.2865228698179593,0.4923422503573616,0.3284650630011455,0.5830018359853121,0.5143265155702967,0.4606973058637084,0.4091402790542234
0.17153579676674366,0.2328384111068261,0.43155149934810955,0.7978362324989393,0.22215876641918908,0.2697720666972617,0.48560343067183986,0.32674684994272624,0.5744339045287638,0.5099963147226829,0.4568145800316958,0.4047957222825633
0.17095842956120094,0.22768029309679907,0.420054521749437,0.800965210012728,0.22718446601941755,0.2619703227780327,0.48284664080049006,0.3264604810996563,0.5682374541003672,0.5052975861433573,0.45281299524564184,0.4004511655109032
0.1718822170900693,0.2297531816428847,0.4232547113903046,0.7993742044972422,0.22649914334665908,0.264647391769925,0.491627527057382,0.3416380297823597,0.572062423500612,0.5066795651372766,0.4543977812995246,0.4017879522098755
0.18042725173210164,0.23587543386039336,0.42076567500296314,0.7921086126431904,0.23620788121073674,0.2687012391005048,0.5053093730855626,0.3573883161512027,0.5756578947368421,0.5088907315275475,0.4568541996830428,0.4045868493608488
0.18285219399538108,0.23732163517161592,0.4194618940381652,0.7901463725074247,0.23917761279268993,0.2693896282698485,0.5156218092709822,0.36282932416953034,0.5755048959608323,0.5090289294269394,0.4565768621236133,0.4045033001921631
0.1773672055427252,0.22782491322792134,0.40725376318596657,0.7978892660161221,0.23963449457452887,0.25791647544745294,0.50959771288544,0.34521764032073304,0.5634179926560587,0.502211166390271,0.4501188589540412,0.39794469045033
0.17136258660508086,0.2176532973389896,0.39457153016475055,0.8062685617310139,0.23986293546544837,0.24575493345571364,0.5034715131713293,0.33075601374570446,0.551484088127295,0.4946102819237148,0.44298732171156896,0.39163672821455425
0.17263279445727484,0.2197261858850752,0.39694204100983765,0.8045184556639795,0.2399771559109081,0.24820253939115802,0.5078619562997754,0.33204467353951883,0.5524785801713586,0.49322830292979547,0.4420760697305864,0.3906759127746679
0.18019630484988455,0.22946394138064016,0.40559440559440557,0.7957148918116249,0.24317532838378075,0.258757839987762,0.5203185623851337,0.34736540664375715,0.5608170134638922,0.49788096554265715,0.44548335974643427,0.3958977358175286
0.18146651270207856,0.23042807558812187,0.4053573545098969,0.7946011879507848,0.2445459737292976,0.2594462291571057,0.5309373085562589,0.35624284077892326,0.5645654834761322,0.49921687857011243,0.44591917591125196,0.3963990308296433
0.17511547344110856,0.22204010798303125,0.3976531942633638,0.8021319473907509,0.24203312392918339,0.25026770689918926,0.5274657953849294,0.34221076746849943,0.555921052631579,0.49295190713101167,0.4393819334389858,0.3903417160999248
0.16784064665127024,0.215580408792904,0.39670498992532893,0.8090263046245226,0.23529411764705888,0.24483708122992195,0.5222585256279354,0.33018327605956466,0.5465881272949816,0.4866408697254469,0.4334389857369255,0.3837413317737488
0.1721709006928407,0.22107597377554955,0.4012089605309944,0.8040411540093338,0.2374643061107939,0.25065014532660246,0.5269552787420869,0.3333333333333333,0.5494951040391677,0.48728579325594257,0.4332012678288431,0.38332358593032
0.18117782909930719,0.2306691091399923,0.4063055588479317,0.7946011879507848,0.24386065105653917,0.2599051552700015,0.540943434755973,0.34693585337915234,0.5572980416156671,0.49032614704256505,0.4356973058637084,0.385537638900493
0.17453810623556584,0.22917470111839566,0.4163802299395519,0.7984726347051336,0.23243860651056542,0.2619703227780327,0.5452317745558505,0.35294959908361967,0.5578335373317014,0.4897272894785333,0.43561806656101426,0.38474392179797806
0.16483833718244806,0.22232934824527575,0.4194618940381652,0.8066928298684769,0.2213592233009709,0.2575340370200398,0.54114764141311,0.34092210767468495,0.5522490820073439,0.4851667587985996,0.4309033280507132,0.37952209875511733
0.15941108545034643,0.2170748168145006,0.4176840109043499,0.8120492151039457,0.2167904054825814,0.25279180052011624,0.5397181948131509,0.3336197021764032,0.5473531211750305,0.4819421411461213,0.42622820919175913,0.37463447238699976
0.1586605080831409,0.2185692248360972,0.4230176603057959,0.8116249469664828,0.21347801256424903,0.2556983325684565,0.5490095977128854,0.3463631156930126,0.5548500611995104,0.48493642896627975,0.4285657686212362,0.376347230345058
0.16397228637413397,0.22363092942537602,0.4244399668128482,0.8063746287653797,0.21804683038263853,0.2602111060119321,0.5635082703696139,0.3752863688430699,0.5715269277845777,0.49290584116454766,0.43593502377179083,0.3826969671651767
0.16737875288683604,0.2339953721558041,0.443048476946782,0.7991090369113278,0.21256424900057116,0.2744378155117026,0.5668776802123748,0.3833046964490263,0.5774938800489596,0.4959922609176341,0.43819334389857373,0.38503634388837826
0.1632794457274827,0.22960856151176245,0.4405594405594405,0.8034047518031395,0.20959451741861798,0.2700780174391923,0.5584031039411884,0.37184994272623134,0.5725979192166463,0.49456421595725086,0.43605388272583206,0.3819032500626619
0.1586605080831409,0.22478789047435402,0.4381889297143534,0.808177768349597,0.20616790405482585,0.2655652439957167,0.5513579742699612,0.36254295532646047,0.5670899632802938,0.4924451814999079,0.43268621236133126,0.3779346645500877
0.16304849884526562,0.22946394138064016,0.4406779661016949,0.8035638523546882,0.20936607652769848,0.2700780174391923,0.5555442107412701,0.3669816723940435,0.5716034271725826,0.4943799520913949,0.43470681458003174,0.37922967666471713
0.16968822170900696,0.23418819899730042,0.4387815574256252,0.797942299533305,0.2167904054825814,0.2732140125439804,0.5660608535838269,0.384020618556701,0.5801713586291309,0.4982494932743689,0.4383122028526149,0.38311471300860556
0.17090069284064668,0.23471847281141536,0.4374777764608273,0.7970937632583792,0.21873215305539695,0.2732140125439804,0.5675924035123544,0.39261168384879724,0.5851438188494491,0.5029021558872305,0.4412044374009509,0.3866237780934079
0.16530023094688223,0.22854801388353257,0.43368495910868793,0.8030865507000424,0.21496287835522562,0.2670185100198868,0.554931590769859,0.37800687285223367,0.5797888616891065,0.49995393403353605,0.4394215530903328,0.38482747096666386
0.16166281755196307,0.22300424219051293,0.4276401564537158,0.807753500212134,0.2142775556824672,0.26067003212482787,0.5424749846845007,0.3592497136311569,0.5716034271725826,0.4951170075548186,0.43645007923930274,0.3819032500626619
0.16408775981524254,0.22777670651754725,0.43427758681995965,0.8040411540093338,0.21347801256424903,0.2666360715924736,0.5458443945272615,0.36082474226804123,0.5738219094247246,0.49682144831398567,0.43751980982567357,0.38365778260506306
0.16755196304849887,0.23650212109525648,0.44873770297499116,0.7976240984302078,0.2099371787549972,0.2782621997858345,0.5600367571982846,0.375,0.5821603427172583,0.5029021558872305,0.4434627575277338,0.38896315481660954
0.16506928406466514,0.23597184728114157,0.45264904586938487,0.7991090369113278,0.20559680182752715,0.27910356432614347,0.5658566469266898,0.3815864833906071,0.5865973072215422,0.5060807075732449,0.44710776545166403,0.39205447405798316
0.155080831408776,0.22565561126108752,0.4476709730947019,0.8093445057276198,0.19805825242718453,0.26931314058436595,0.5571778639983663,0.3674112256586483,0.5777998776009792,0.5024875621890548,0.44338351822503963,0.3887125073105523
0.15306004618937646,0.22112418048592367,0.4406779661016949,0.8127916843445057,0.19954311821816112,0.26342358880220285,0.5442107412701653,0.34936998854524626,0.5687729498164015,0.4989865487377925,0.440095087163233,0.38545408973180717
0.15560046189376447,0.2252699575780949,0.4456560388763779,0.809291472210437,0.19965733866362081,0.26831880067309166,0.5491117010414539,0.3575315005727377,0.5734394124847001,0.5026718260549107,0.4438193343898574,0.3900910685938675
0.1678983833718245,0.2354897801774007,0.4455375133341235,0.7980483665676708,0.211764705882353,0.2764264953342512,0.5570757606697978,0.372709049255441,0.5812423500611995,0.508061544131196,0.44920760697305867,0.39535466622107107
0.16945727482678985,0.23708060161974548,0.44624866658764967,0.7964573610521849,0.2130211307824101,0.2778797613584213,0.5577904839697774,0.37156357388316147,0.5798653610771114,0.5081536760641239,0.44912836767036457,0.39476982204027067
0.16443418013856817,0.23144041650597763,0.4426929003200189,0.8018667798048366,0.2097087378640777,0.27229616031818876,0.5475801511129262,0.3518041237113402,0.5687729498164015,0.5035470794177263,0.4448890649762282,0.39176205196758296
0.15629330254041574,0.2272946394138064,0.44921180514400855,0.8079126007636827,0.19851513420902345,0.2710723573504666,0.5433939146416173,0.33820160366552116,0.5604345165238678,0.5,0.44175911251980987,0.38954799899740994
0.16235565819861436,0.2334168916313151,0.45181936707360437,0.801707679253288,0.20331239291833245,0.2768089337616644,0.545742291198693,0.33863115693012596,0.5623470012239902,0.5005527915975678,0.4430665610142631,0.3914278552928398
0.16882217090069288,0.24228692634014656,0.460353206115918,0.7938587187102248,0.20559680182752715,0.2865228698179593,0.554931590769859,0.34808132875143183,0.5664014687882497,0.5029021558872305,0.4462757527733756,0.3954799899740997
0.1668591224018476,0.24055148476667954,0.4599976294891549,0.7957679253288078,0.20388349514563112,0.2850696037937892,0.5596283438840105,0.3440721649484536,0.5624235006119951,0.5014741109268472,0.4462757527733756,0.3958559612331857
0.1634526558891455,0.23597184728114157,0.4558492355102524,0.7998515061518879,0.20239862935465452,0.28009790423741776,0.549928527670002,0.31658075601374575,0.548500611995104,0.49401142435968315,0.44021394611727416,0.38984042108781014
0.1603348729792148,0.2312957963748554,0.45075263719331515,0.8038290199406024,0.20182752712735585,0.27474376625363317,0.541351848070247,0.2981099656357388,0.5370257037943696,0.4889441680486457,0.43530110935023775,0.384785696382321
0.16356812933025405,0.2349112996529117,0.4530046224961479,0.8003818413237165,0.20399771559109087,0.27833868747131707,0.5445170512558709,0.30097365406643756,0.5364137086903304,0.4881149806522941,0.43530110935023775,0.3861224830812933
0.16836027713625867,0.2424315464712688,0.4616569870807159,0.7940178192617734,0.20456881781838954,0.2870582836163378,0.5538084541556054,0.30856242840778925,0.5390911872705019,0.48917449788096556,0.43589540412044375,0.3876681427019801
0.16304849884526562,0.2385750096413421,0.46307929358776817,0.7985787017394993,0.1986293546544832,0.28453418999541075,0.5542168674698794,0.3004009163802978,0.5357252141982863,0.4882071125852221,0.4337559429477021,0.3853705405631214
0.15773672055427254,0.22864442730428075,0.44956738177077166,0.8064806957997454,0.19988577955454032,0.27229616031818876,0.5441086379415968,0.28293241695303545,0.5249388004895961,0.4829555924083288,0.428446909667195,0.3800651683515749
0.1534064665127021,0.21929232549170846,0.43546284224250326,0.8136402206194314,0.20228440890919477,0.2602875936974147,0.5419644680416581,0.2764891179839633,0.5193543451652387,0.478441127694859,0.4263470681458003,0.3779346645500877
0.15964203233256352,0.22126880061704587,0.4276401564537158,0.809662706830717,0.21222158766419194,0.25936974147162306,0.5536042474984684,0.29266895761741124,0.5250917992656059,0.4800534365210982,0.42852614896988905,0.3803575904419751
0.1651847575057737,0.2267643655996915,0.4296550906720398,0.8040941875265167,0.2167904054825814,0.26434144102799445,0.5687155401266081,0.31214203894616266,0.5338892288861689,0.4837847798046804,0.43141838351822503,0.38378310635809176
0.16172055427251733,0.22681257231006557,0.43688514874955553,0.8056851930420025,0.20982295830953746,0.26671255927795623,0.5807637328976925,0.32459908361970213,0.5382496940024479,0.4852588907315276,0.4321315372424723,0.38415907761717766
