Lead I,Lead II,Lead III,aVR,aVL,aVF,V1,V2,V3,V4,V5,V6
0.3008660508083141,0.3344581565753953,0.4159061277705345,0.6825413661434026,0.3576242147344375,0.3453418999541073,0.5122523994282213,0.2762027491408935,0.3929008567931456,0.4052883729500645,0.341283676703645,0.295137438382488
0.3073903002309469,0.3387485537986888,0.41306151475643,0.6771849809079338,0.3655054254711594,0.3478659935750344,0.5196038390851542,0.2879438717067583,0.4002447980416156,0.4095725078312143,0.3452852614896989,0.2986047288829476
0.3004041570438799,0.3319514076359429,0.4106910039113429,0.6841323716588884,0.3596801827527128,0.3416704910509408,0.5150091892995711,0.2717640320733104,0.3916768665850673,0.4057490326147043,0.3411251980982567,0.2949703400451166
0.2878175519630485,0.3234670266101041,0.4155505511437714,0.6945799745439117,0.3448315248429469,0.3365458161236041,0.5072493363283643,0.2444158075601374,0.3770654834761321,0.3967661691542288,0.3337559429477021,0.2866989723452252
0.2865473441108545,0.3252506748939452,0.4226620836790328,0.6942087399236317,0.3401484865790977,0.3402172250267707,0.5064325096998162,0.2345360824742268,0.373470012239902,0.392574166206007,0.33026941362916,0.2828139360013367
0.2888568129330254,0.3307944465869649,0.4314329738058551,0.6900721255833686,0.3383209594517419,0.3474835551476212,0.5155197059424137,0.2459908361970217,0.3775244798041616,0.3937258153676065,0.3320126782884311,0.2845266939593951
0.2896651270207853,0.3297821056691091,0.427403105369207,0.6902312261349173,0.3410622501427756,0.3453418999541073,0.5232795589136205,0.2537227949599083,0.3811964504283965,0.3944168048645661,0.3318541996830428,0.2846937922967666
0.2811778290993072,0.3238044735827227,0.4301291928410573,0.6974437844717861,0.3312392918332382,0.3415175156799755,0.5175617725137839,0.238545246277205,0.3733935128518971,0.3899023401510963,0.3252377179080825,0.2784276046453338
0.2724018475750577,0.3180196683378327,0.4339220101931966,0.7046563428086551,0.3208452312964021,0.3381520575187394,0.5084745762711864,0.2235108820160366,0.3628365973072215,0.3823014556845403,0.3180665610142631,0.2719943186565293
0.2699769053117783,0.3164770536058619,0.4349887400734858,0.7066185829444208,0.3178754997144489,0.3372342052929478,0.4975495201143556,0.2077605956471935,0.3554926560587515,0.3758982863460476,0.3137876386687797,0.2672737906257832
0.2778868360277137,0.3238526802930968,0.4370036742918099,0.6989287229529062,0.3247287264420331,0.343735658558972,0.5076577496426383,0.2129152348224513,0.3626835985312118,0.3794453657637737,0.3175911251980983,0.2714094744757289
0.2823325635103926,0.3271789433089086,0.436055469953775,0.6950572761985574,0.3295259851513422,0.3461067768089337,0.5172554625280784,0.2250859106529209,0.3694920440636475,0.3838216325778514,0.3206022187004754,0.2744590191327596
0.2732101616628176,0.3198997300424219,0.4368851487495555,0.7032774713619007,0.3201599086236437,0.3405231757687012,0.5070451296712273,0.2046105383734249,0.3606181150550795,0.378984706099134,0.3153724247226624,0.2696967165176706
0.2613741339491917,0.3145969919012726,0.4481450752637193,0.7116037335596096,0.3030268418046831,0.3399877619703227,0.4875433939146416,0.1696735395189003,0.3468482252141983,0.3703243044039064,0.3072503961965134,0.2621355167516083
0.2579099307159354,0.3165734670266101,0.4601161550314093,0.7120810352142554,0.2938892061679041,0.34541838763959,0.47804778435777,0.1504868270332188,0.3414932680538555,0.3665929611203243,0.3041600633914421,0.2595872671066923
0.2645496535796767,0.323949093713845,0.4646201256370748,0.7049745439117522,0.2982295830953741,0.3527612054459231,0.482642434143353,0.1532073310423826,0.3444767441860465,0.3682513359130274,0.3066957210776545,0.2642242459687526
0.2678406466512702,0.326263015811801,0.4636719212990399,0.7022168010182435,0.3019988577955455,0.3542144714700933,0.4932611803144782,0.1630870561282932,0.3518206854345165,0.3728579325594252,0.3108557844690967,0.2694878435959562
0.2609699769053118,0.3206228306980331,0.4637904468412943,0.7084747560458209,0.2950314106225015,0.3497781857121004,0.4804982642434143,0.138459335624284,0.3436352509179926,0.3703703703703704,0.3082408874801902,0.2671902414570975
0.2546766743648961,0.3160431932124952,0.4654498044328553,0.7138841747984727,0.2880639634494575,0.3467186782927949,0.4671227282009393,0.1149770904925543,0.330859853121175,0.3635526073337018,0.3024960380348653,0.2615506725708079
0.2578521939953811,0.3197069032009256,0.4679388408201967,0.7104369961815867,0.290005711022273,0.3503900871959614,0.4614049418011026,0.1108247422680412,0.3307833537331701,0.363322277501382,0.3022979397781299,0.2614671234021222
0.2640877598152425,0.3266004627844196,0.4720872347990991,0.7037547730165464,0.2941176470588236,0.3571974912039162,0.4688584847866039,0.1254295532646048,0.3412637698898408,0.3694951170075549,0.3083201267828843,0.2677750856378978
0.2684757505773673,0.3272753567296568,0.4647386511793291,0.7013682647433178,0.3019988577955455,0.3554382744378155,0.4808045742291198,0.1509163802978236,0.3546511627906976,0.3775566611387507,0.3163629160063391,0.2756704820787033
0.2648960739030023,0.3202853837254146,0.4549010311722176,0.7068837505303351,0.3032552826956026,0.3466421906073121,0.4815192975290994,0.1573596792668957,0.357328641370869,0.3807812787912291,0.3182250396196514,0.2777592112958476
0.2595842956120092,0.3168627072888546,0.457390067559559,0.7111794654221467,0.2967447173043975,0.3448064861557289,0.4761078211149683,0.1530641466208476,0.3544216646266829,0.3798599594619495,0.3171949286846275,0.277592112958476
0.2640300230946882,0.3225993058233706,0.462368140334242,0.7059821807382266,0.2988006853226728,0.3509255009943399,0.4777414743720645,0.1638029782359679,0.3637545899632803,0.3835913027455316,0.3212361331220286,0.2814771493023644
0.2726327944572749,0.3317585807944466,0.4672276875666706,0.6970195163343232,0.3049685893774986,0.3597980725103258,0.4940780069430263,0.195303550973654,0.3844094247246022,0.3935415515017506,0.3295166402535657,0.2897067424179129
0.2775981524249423,0.3359525645969919,0.467346213108925,0.6924056003394145,0.3097658480868075,0.3631635306715619,0.5110271594853992,0.2309564719358534,0.4039167686658507,0.4050580431177447,0.3385895404120443,0.2978945609491185
0.2732678983833718,0.3295892788276128,0.4605902572004267,0.697868052609249,0.3088520845231297,0.3558972005507113,0.5203185623851337,0.2491408934707903,0.4147796817625458,0.4113230145568454,0.3420364500792393,0.3015707243712925
0.2684180138568129,0.3319514076359429,0.476354154320256,0.6988226559185404,0.2964020559680183,0.3628575799296313,0.5154176026138452,0.2469931271477663,0.4124082007343941,0.410079233462318,0.3398573692551506,0.2988971509733478
0.2655889145496536,0.3341689163131508,0.4877326063766741,0.6988756894357233,0.2881781838949172,0.3682882055988985,0.5253216254849908,0.2564432989690721,0.4209761321909425,0.4139027086788281,0.3421553090332805,0.2999415155819199
0.2645496535796767,0.3390377940609332,0.5017186203626881,0.696701315231226,0.2804111936036551,0.376625363316506,0.5438023279558913,0.2760595647193585,0.4388769889840881,0.4222867145752718,0.3492076069730587,0.3069178711671819
0.2637990762124712,0.3432799845738526,0.5136897001303781,0.6947390750954603,0.2737864077669903,0.3838916934373566,0.5612619971411068,0.2936712485681557,0.4567013463892288,0.4340335360235858,0.3597464342313787,0.3177792630963322
0.2589491916859123,0.3401947551099113,0.5160602109754652,0.6986105218498091,0.267846944603084,0.3822089643567385,0.5642229936695936,0.2782073310423826,0.4576958384332925,0.4384558688041275,0.363946117274168,0.3216225248558776
0.2564087759815243,0.3390377940609332,0.5185492473628066,0.7004136614340263,0.2641918903483723,0.3821324766712559,0.5558505207269757,0.2451317296678121,0.4528763769889841,0.4391007923346232,0.3656101426307448,0.3233770573982789
0.2590646651270208,0.347473968376398,0.5337205167713642,0.6945799745439117,0.2595088520845232,0.3936821171791342,0.5469675311415152,0.2303837342497136,0.4585373317013464,0.4440298507462687,0.3727020602218701,0.3304787367365694
0.2700346420323326,0.3617913613575009,0.5464027497925802,0.6816928298684769,0.2641918903483723,0.4091326296466269,0.54594649785583,0.2384020618556701,0.4732252141982864,0.4543946932006634,0.3840729001584786,0.3422591695212633
0.2843533487297922,0.371529116853066,0.5409505748488799,0.6697072549851506,0.2810965162764135,0.4150986691142726,0.532162548499081,0.2591638029782359,0.4884485924112607,0.4674774276764327,0.3963549920760698,0.3545408973180716
0.29405311778291,0.3742768993443888,0.5277942396586464,0.6637675010606703,0.296973158195317,0.4130335016062414,0.4927506636716356,0.2575887743413517,0.4945685434516524,0.4747558503777409,0.4040015847860538,0.3610995070599048
0.2990184757505774,0.3717701504049364,0.5114377148275453,0.6628659312685616,0.3097658480868075,0.4057671714853908,0.4393506228303042,0.2518613974799542,0.4924265605875152,0.4769670167680118,0.4073296354992076,0.3642326008856212
0.3078521939953811,0.3714809101426918,0.4925921536091027,0.6589944845142129,0.3275842375785265,0.3994186935903319,0.3952419848887073,0.2677548682703322,0.4964810281517748,0.4829555924083288,0.4132329635499208,0.3712089564708831
0.3210161662817552,0.3736020053991515,0.4707834538343012,0.6517288926601612,0.3511136493432325,0.3940645556065473,0.387584235246069,0.3175830469644902,0.5128518971848225,0.4936889625944353,0.4238906497622821,0.3816526025566045
0.3236143187066975,0.366997686077902,0.4493303306862629,0.6542214679677556,0.3640205596801828,0.381903013614808,0.4001429446599959,0.361254295532646,0.525015299877601,0.5011516491615995,0.4312995245641838,0.3881694377140947
0.3176674364896074,0.356054762822985,0.4345146379044684,0.6629189647857446,0.3652769845802399,0.3685176686553464,0.3972840514600775,0.3707044673539519,0.5245563035495716,0.5011055831951355,0.4311806656101427,0.387709917286323
0.3143764434180139,0.3508484381025838,0.4284698352494963,0.6673207467119219,0.3649343232438607,0.3623986538167354,0.3918725750459464,0.3752863688430699,0.5198898408812729,0.4991708126036485,0.4293977812995246,0.3863313560030077
0.3211316397228638,0.3563922097956036,0.4282327841649875,0.6611688587187102,0.3716733295259852,0.3666819642037631,0.3953440882172758,0.3880297823596793,0.5214963280293757,0.4991708126036485,0.4311806656101427,0.3880858885454089
0.3303695150115474,0.3608272271500193,0.4201730472916914,0.6544866355536698,0.3846944603083952,0.3675998164295548,0.4092301409025934,0.4093642611683848,0.5280752753977969,0.5022572323567349,0.4347464342313788,0.392806416576155
0.3301385681293303,0.3574045507134593,0.4122318359606495,0.6565019092066186,0.3883495145631068,0.3623986538167354,0.414335307331019,0.4191008018327605,0.5286107711138311,0.5034549474847982,0.4364896988906498,0.3958141866488429
0.3239607390300231,0.3459313536444273,0.3967049899253289,0.6656236741620704,0.3897201599086237,0.3482484320024476,0.4129058607310598,0.409077892325315,0.5200428396572827,0.4995393403353602,0.4335578446909667,0.3926810928231264
0.3130484988452656,0.3346509834168916,0.3913713405238829,0.6768137462876538,0.3814962878355226,0.337616643720361,0.4111701041453951,0.3917525773195876,0.5069614443084455,0.4918002579694122,0.4281695721077655,0.3871250731055226
0.3110854503464204,0.3347956035480139,0.395756785587294,0.6776622825625794,0.377384351798972,0.3391463974300138,0.4186236471308964,0.3923253150057273,0.5035954712362302,0.4887138382163258,0.4268621236133122,0.3864149051716935
0.3196304849884527,0.3437620516775935,0.4002607561929595,0.668805685193042,0.3836664762992576,0.3477130182040691,0.4302634265877067,0.402205040091638,0.5078794369645042,0.4898194214114612,0.4278526148969889,0.3875845935332943
0.3177829099307159,0.3426050906286155,0.4012089605309944,0.670290623674162,0.3813820673900628,0.3470246290347254,0.433530733101899,0.402205040091638,0.5068849449204407,0.4879307167864382,0.4248019017432647,0.3852034422257498
0.3067551963048499,0.3314693405322021,0.3964679388408201,0.6814806957997455,0.3728155339805826,0.3366987914945693,0.4407800694302634,0.3913230240549828,0.4970930232558139,0.4812972176156256,0.4175118858954041,0.3778093407970591
0.3046189376443418,0.3276128037022753,0.3913713405238829,0.6845566397963512,0.3731581953169617,0.3320330426801285,0.4317949765162344,0.377147766323024,0.4850061199510403,0.4738805970149254,0.4114104595879557,0.3717102514829977
0.3066397228637414,0.3307944465869649,0.3950456323337679,0.6819049639372082,0.3733866362078812,0.3357044515832951,0.4342454564018786,0.379295532646048,0.483782129742962,0.470748111295375,0.4103011093502378,0.3703316901996825
0.3108545034642032,0.3363382182799845,0.4000237051084509,0.6769198133220196,0.375214163335237,0.3416704910509408,0.4459873391872575,0.392898052691867,0.4898255813953488,0.4730053436521098,0.4126386687797148,0.3722950956637981
0.3081986143187067,0.3351812572310065,0.4025127414957923,0.6787759864234195,0.371330668189606,0.3415940033654581,0.4548703287727179,0.4007731958762887,0.495563035495716,0.4761378293716602,0.413946117274168,0.373423009441056
0.3000577367205543,0.328528731199383,0.4029868436648098,0.6862006788290199,0.3629925756710452,0.3364693284381214,0.4576271186440677,0.3860252004581901,0.4879895960832313,0.4713469688594067,0.4089144215530904,0.3682847355668811
0.2970554272517321,0.3254917084458156,0.4015645371577575,0.689223589308443,0.3608223872073102,0.3335627963897812,0.4534408821727587,0.377290950744559,0.4812576499388004,0.4655887230514096,0.4038827258320127,0.363564207536135
0.2946882217090069,0.3286733513305052,0.4143652957212279,0.6885341535850658,0.3522558537978298,0.3402937127122533,0.4678374515009189,0.3943298969072164,0.4883720930232558,0.4675234936428967,0.4047147385103011,0.3647338958977358
0.2985565819861432,0.3373023524874662,0.4276401564537158,0.6820640644887569,0.3497430039977156,0.3513844271072357,0.4827445374719215,0.415807560137457,0.5010709914320686,0.4729132117191819,0.4079239302694136,0.3687442559946528
0.3017898383371825,0.3433281912842267,0.4358184188692663,0.6772380144251167,0.3489434608794975,0.3588037325990516,0.4860118439861139,0.4233963344788086,0.5047429620563035,0.4739266629813894,0.4077654516640254,0.3681594118138524
0.2936489607390301,0.3378808330119552,0.4391371340523883,0.6839732711073399,0.3393489434608795,0.3555147621232981,0.4834592607719011,0.4213917525773196,0.5009179926560587,0.470840243228303,0.4047543581616482,0.3654858384159077
0.2922632794457275,0.3332529888160432,0.4304847694678202,0.6871552821383113,0.3420902341519132,0.3490897965427566,0.4787625076577496,0.4168098510882016,0.4988525091799265,0.4699189238990234,0.4051901743264659,0.366112457181051
0.2998267898383372,0.3397126880061704,0.4309588716368377,0.680101824352991,0.3494003426613364,0.3543674468410586,0.4830508474576271,0.4285509736540664,0.505125458996328,0.4744794545789571,0.4094690966719493,0.3717520260673406
0.308891454965358,0.3467508677207867,0.4296550906720398,0.6720937632583792,0.3588806396344946,0.3594921217683953,0.4901980804574228,0.4428694158075601,0.5117809057527539,0.4780265339966833,0.4131537242472266,0.3753864149051717
0.3098152424942264,0.3466544543000385,0.427403105369207,0.6717225286380992,0.3609366076527699,0.3587272449135689,0.4939759036144578,0.4530355097365406,0.5152998776009792,0.4795006449235305,0.4147385103011093,0.3762636811763723
0.303175519630485,0.3399537215580409,0.4246770178973569,0.6784577853203224,0.355682467161622,0.3525317423894753,0.4849908107004287,0.4371420389461626,0.5090269277845777,0.476552423069836,0.4097860538827258,0.371250731055226
0.3022517321016166,0.3339760894716544,0.4118762593338864,0.6821701315231226,0.3609366076527699,0.3436591708734894,0.4764141311006739,0.4265463917525772,0.5032129742962056,0.474663718444813,0.4076862123613313,0.3691620018380817
0.3043302540415705,0.3433763979946008,0.430721820552329,0.6760712770470938,0.3539691604797259,0.3571974912039162,0.4783540943434755,0.4281214203894616,0.5030599755201959,0.4739266629813894,0.4089936608557845,0.369788620603225
0.3023094688221709,0.3494986502121095,0.4499229583975346,0.6736317352566822,0.3426613363792119,0.3682117179134159,0.4929548703287726,0.4424398625429552,0.5139228886168911,0.4790399852588908,0.4129160063391442,0.3738407552844849
0.2990184757505774,0.3519089857308137,0.4624866658764964,0.6737908358082308,0.3332952598515135,0.3741777573810617,0.4987747600571778,0.4506013745704467,0.5198898408812729,0.4826331306430809,0.4154516640253566,0.3750939928147715
0.2957274826789838,0.3502699575780948,0.4653312788906009,0.6762303775986424,0.328726442033124,0.3738718066391311,0.4880539105574841,0.4395761741122565,0.5120104039167687,0.4779344020637553,0.4098256735340729,0.369078452669396
0.2920323325635104,0.3500289240262245,0.4722057603413535,0.6780335171828595,0.32175899486008,0.3758604864616796,0.4793751276291606,0.4321305841924398,0.5076499388004896,0.4762760272710522,0.4082805071315372,0.3667390759461943
0.2949769053117783,0.3561511762437331,0.481332227094939,0.6733135341535851,0.3202741290691034,0.3836622303809086,0.482438227486216,0.4377147766323023,0.5145348837209303,0.482494932743689,0.4154516640253566,0.3742167265435709
0.299364896073903,0.3625144620131122,0.4879696574611828,0.6677980483665676,0.3214163335237008,0.3908520728162765,0.4945885235858689,0.4550400916380298,0.5256272949816402,0.4904182789754929,0.4228605388272583,0.3822792213217478
0.2989607390300231,0.3575009641342075,0.4764726798625104,0.6707148918116249,0.326556253569389,0.3832033042680128,0.5057177863998366,0.4677835051546391,0.5316707466340269,0.4930901050304035,0.425,0.3848692455510067
0.2919745958429561,0.3487273428461242,0.4692426217849946,0.6787759864234195,0.3231296402055968,0.3738718066391311,0.4983663467429037,0.4537514318442153,0.5228733170134638,0.4896351575456053,0.4212757527733756,0.3821538975687191
0.2872401847575058,0.3431835711531045,0.4653312788906009,0.6839732711073399,0.3203883495145632,0.3682117179134159,0.482438227486216,0.4391466208476517,0.5142288861689106,0.4874700571217984,0.4191362916006339,0.3814437296348901
0.2869515011547344,0.3477150019282684,0.4769467820315278,0.681639796351294,0.3144488863506568,0.375554535719749,0.4845823973861548,0.4351374570446735,0.5159118727050184,0.4900958172102451,0.4228209191759113,0.3870415239368368
0.2900692840646651,0.353789047435403,0.4855991466160957,0.6768667798048366,0.3134209023415192,0.3832033042680128,0.4885644272003267,0.4405784650630011,0.5208078335373316,0.4934586327621154,0.4276545166402535,0.392096248642326
0.2860854503464203,0.3529695333590436,0.4917624748133222,0.6791472210436995,0.3064534551684752,0.3845035949212176,0.4877476005717786,0.4405784650630011,0.5175183598531212,0.4924451814999079,0.4281299524564184,0.392096248642326
0.280715935334873,0.3473775549556498,0.4890363873414721,0.684662706830717,0.3024557395773844,0.3792259446229157,0.4748825811721461,0.4128006872852233,0.5034424724602203,0.4842454394693201,0.4212757527733756,0.3854540897318071
0.2734988452655889,0.3428461241804859,0.4925921536091027,0.6904963937208315,0.2935465448315249,0.3767783386874713,0.4668164182152337,0.3855956471935853,0.4921970624235006,0.4779344020637553,0.4148177496038035,0.3797727462611747
0.2793302540415704,0.3491612032394909,0.4961479198767334,0.6843445057276198,0.2976584808680754,0.3828973535260823,0.4699816214008576,0.3860252004581901,0.4934975520195838,0.478625391560715,0.4152139461172742,0.3798562954298605
0.2836027713625866,0.3540300809872734,0.4994666350598554,0.6796775562155283,0.3002855511136494,0.387792565396971,0.4804982642434143,0.395475372279496,0.497781517747858,0.4801916344204901,0.4187004754358162,0.3830729384242627
0.2854503464203233,0.3510412649440803,0.488325234087946,0.6805260924904539,0.3074814391776128,0.381903013614808,0.4818256075148049,0.3934707903780068,0.4948745410036719,0.4789939192924268,0.4184231378763867,0.3830311638399198
0.2763279445727483,0.3397126880061704,0.4791987673343605,0.6909206618582944,0.3029126213592233,0.3698944469940339,0.4744741678578721,0.377004581901489,0.482328641370869,0.4721761562557583,0.4125990491283677,0.3765978778511153
0.2732101616628176,0.3319514076359429,0.4665165343131445,0.6966482817140432,0.3058823529411765,0.3596450971393605,0.4678374515009189,0.3692726231386025,0.47421970624235,0.4682605491063203,0.4076465927099841,0.3704152393683683
0.2765588914549653,0.3340242961820285,0.4648571767215835,0.6939435723377173,0.3099942889777271,0.3607924124216001,0.4764141311006739,0.3787227949599083,0.4777386780905752,0.4701953196978073,0.4085182250396197,0.3700810426936252
0.2838337182448037,0.340001928268415,0.464383074552566,0.6873143826898599,0.31741861793261,0.3653816735505583,0.4910149070859709,0.3984822451317296,0.4867656058751529,0.4745255205454211,0.4125990491283677,0.3738825298688277
0.285796766743649,0.3427015040493636,0.4671091620244162,0.6849278744166313,0.3181039406053684,0.3683646932843812,0.4984684500714723,0.4062142038946162,0.4900550795593635,0.4753086419753087,0.4129160063391442,0.3756788369955719
0.2781177829099307,0.3338314693405322,0.4610643593694441,0.693360203648706,0.3133066818960595,0.3594156340829126,0.4983663467429037,0.3957617411225658,0.4816401468788249,0.4709323751612309,0.4091125198098257,0.3713760548082546
0.2755773672055427,0.3297821056691091,0.4563233376792699,0.696701315231226,0.3131924614505997,0.3546733975829891,0.5002042066571369,0.3949026345933562,0.4804926560587515,0.4705177814630552,0.4087955625990492,0.3711254073021973
0.2812355658198615,0.3328673351330505,0.4522934692426217,0.6924586338565973,0.3206167904054826,0.3558207128652286,0.5121502960996528,0.4105097365406643,0.4907435740514075,0.474663718444813,0.412202852614897,0.3743002757122567
0.283891454965358,0.3382664866949479,0.4599976294891549,0.6882689859991514,0.319588806396345,0.3625516291877008,0.5383908515417603,0.4354238258877434,0.5013769889840881,0.4780725999631472,0.4155309033280507,0.37709917286323
0.2801385681293303,0.3366274585422291,0.4637904468412943,0.6908676283411116,0.3139920045688179,0.3625516291877008,0.5540126608127425,0.4400057273768614,0.5013769889840881,0.4758614335728764,0.4123217115689382,0.3736318823627705
0.2685912240184757,0.3258291554184342,0.4609458338271898,0.7021107339838778,0.3040548258138207,0.3529906685023711,0.5537063508270369,0.4133734249713631,0.4895960832313342,0.4690436705362079,0.4048335974643423,0.3665719776088227
0.2606235565819862,0.3242383339760895,0.4733910157638971,0.7066185829444208,0.2901199314677328,0.3558207128652286,0.5600367571982846,0.3960481099656357,0.4840116279069767,0.4660033167495854,0.4030507131537242,0.3645250229760214
0.2569284064665127,0.3255881218665638,0.4841768401090435,0.7075731862537122,0.281324957167333,0.3603334863087042,0.5794363896263017,0.388602520045819,0.4833996328029376,0.4663257785148333,0.4036053882725832,0.3656529367532793
0.257621247113164,0.3273235634400309,0.4871399786654024,0.7063534153585066,0.2805254140491148,0.3626281168731834,0.5953645088829895,0.3764318442153493,0.4805691554467564,0.46489773355445,0.4041600633914421,0.3663213301027655
0.2534064665127021,0.3247686077902044,0.4895104895104895,0.7096414934238439,0.2752712735579669,0.3614043139054612,0.5973044721257913,0.3569587628865979,0.4725367197062423,0.4599686751428046,0.4027733755942947,0.3650680925724789
0.2466512702078522,0.319369456228307,0.4901031172217612,0.7157403478998727,0.2683038263849229,0.3573504665748814,0.5760669797835408,0.3175830469644902,0.4522643818849449,0.451170075548185,0.395919175911252,0.3595120728548751
0.2495381062355658,0.3226475125337447,0.4922365769823396,0.712611370386084,0.2701313535122787,0.3605629493651521,0.5473759444557893,0.2963917525773196,0.4423194614443084,0.4478072599963147,0.3931061806656101,0.3572562453003592
0.2624133949191686,0.333156575395295,0.4916439492710678,0.7009439966058548,0.2830382638492291,0.3687471317117944,0.5146007759852971,0.2910939289805269,0.446297429620563,0.4516307352128248,0.3971077654516641,0.3619349987467624
0.2769630484988453,0.3447261858850752,0.4902216427640156,0.6878977513788714,0.2981153626499144,0.377466727856815,0.4813150908719624,0.3005441008018327,0.4545593635250918,0.459047355813525,0.4033676703645008,0.3684100593199098
0.2807736720554273,0.3399537215580409,0.4706649282920469,0.6887462876537972,0.3113649343232439,0.3673703533731069,0.437716969573208,0.297680412371134,0.4480569155446756,0.4565597936244702,0.4020602218700476,0.3673656947113376
0.2756928406466513,0.3212977246432704,0.4352257911579945,0.7013152312261348,0.3233580810965163,0.3411350772525623,0.410965897488258,0.2889461626575029,0.4357405140758874,0.4487285793255943,0.3957210776545167,0.3614337037346478
0.275,0.3060644041650597,0.3991940263126704,0.7100657615613067,0.3400342661336379,0.3174238947529447,0.4172963038595058,0.3081328751431844,0.4378059975520195,0.4493735028560899,0.3945721077654517,0.360639986632133
0.2862586605080832,0.3092460470497493,0.3840227569041128,0.7031183708103521,0.3585379782981154,0.315052776502983,0.4248519501735756,0.3329037800687285,0.4461444308445532,0.4534273079049198,0.3975039619651347,0.3650680925724789
0.2948614318706698,0.3249132279213266,0.4047647267986251,0.6905494272380144,0.3570531125071388,0.3341746978736423,0.4342454564018786,0.3483676975945017,0.4546358629130967,0.4560530679933666,0.4003961965134707,0.3689949035007102
0.2966512702078522,0.326263015811801,0.404409150171862,0.6889584217225286,0.3589948600799543,0.3351690377849166,0.4304676332448438,0.3555269186712485,0.4547123623011015,0.4568361894232541,0.4008716323296355,0.3695379730971677
0.2895496535796767,0.3156093328191284,0.3927936470309351,0.6981332201951633,0.3575099942889778,0.3229310081076946,0.4266898100878087,0.3439289805269186,0.4466799265605875,0.4536576377372397,0.397662440570523,0.3658618096749937
0.2838337182448037,0.3051966833783263,0.3789261585871755,0.7064594823928723,0.3586521987435752,0.3101575646320942,0.4265877067592403,0.3331901489117984,0.4410189718482252,0.4508015478164732,0.3944136291600634,0.3631464616927061
0.2883949191685913,0.3106440416505978,0.3830745525660779,0.7013682647433178,0.3611650485436893,0.3158176533578094,0.4341433530733101,0.3390607101947308,0.4454559363525092,0.4525981205085683,0.3969096671949286,0.3654858384159077
0.2970554272517321,0.3219726185885075,0.3930306981154439,0.6911327959270258,0.3649343232438607,0.3280556830350313,0.4435368593016132,0.352233676975945,0.4530293757649938,0.455177814630551,0.400594294770206,0.3681176372295096
0.2980369515011548,0.326263015811801,0.4015645371577575,0.6883750530335172,0.3617361507709881,0.3341746978736423,0.4403716561159893,0.3477949599083619,0.4524173806609547,0.4545789570665193,0.4003169572107766,0.368326510151224
0.2884526558891455,0.3236598534516005,0.4148393978902453,0.6942087399236317,0.3458595088520846,0.3364693284381214,0.4307739432305492,0.327319587628866,0.4431609547123623,0.4507094158835452,0.3970681458003169,0.3651098671568217
0.2847575057736721,0.318260701889703,0.4091501718620363,0.6988226559185404,0.3449457452884066,0.3302738259140279,0.4286297733306106,0.3152920962199312,0.4385709914320685,0.4484061175603464,0.3944532488114105,0.3618096749937338
0.2896651270207853,0.3189355958349402,0.400734858361977,0.6962240135765804,0.3538549400342662,0.328132170720514,0.4437410659587502,0.3281786941580756,0.4451499388004895,0.4514004053805049,0.3962757527733756,0.3640237279639067
0.2964780600461894,0.3240937138449672,0.399431077397179,0.6902842596521,0.3611650485436893,0.3318035796236805,0.4503777823157034,0.345360824742268,0.45218788249694,0.4547171549659112,0.4015055467511886,0.3682429609825382
0.2984411085450346,0.3266968762051678,0.4018015882422662,0.6879507848960543,0.3619645916619075,0.3346336239865382,0.4472125791300796,0.3354810996563573,0.449969400244798,0.4527823843744242,0.4010697305863708,0.3682011863981953
0.2871824480369515,0.3172001542614732,0.4015645371577575,0.6983453542638948,0.3509994288977727,0.327061343123757,0.4410863794159689,0.31815578465063,0.4409424724602203,0.4467938087341072,0.395364500792393,0.3625198429275628
0.2834872979214781,0.3145005784805245,0.4025127414957923,0.7015273652948664,0.3468874928612222,0.3252256386721738,0.4334286297733305,0.3031214203894616,0.4314565483476132,0.4426939377188134,0.3904912836767036,0.3576322165594452
0.2905889145496536,0.322261858850752,0.4070167121014578,0.6939435723377173,0.3517989720159909,0.3327979195349549,0.437512762916071,0.3118556701030928,0.4342870257037943,0.445365763773724,0.392472266244057,0.3600969170356755
0.2943995381062356,0.3283359043578866,0.4141282446367191,0.6889053882053457,0.3521416333523701,0.3399112742848401,0.4476209924443536,0.3290378006872852,0.4438494492044063,0.4497880965542657,0.3966323296354992,0.3640655025482496
0.2853926096997691,0.3246721943694562,0.423728813559322,0.6950042426813746,0.3385494003426614,0.3400642496558054,0.4519093322442311,0.331615120274914,0.4451499388004895,0.4486364473926663,0.3959984152139461,0.3631464616927061
0.2754618937644342,0.3151754724257617,0.4206471494607088,0.7048154433602036,0.3302113078241006,0.3315741165672327,0.4474167857872166,0.3125715922107674,0.4335985312117503,0.4418186843559978,0.3891045958795562,0.3557941348483582
0.2731524249422632,0.3128615503278056,0.4196989451226739,0.7071489181162495,0.3283837806967447,0.3294324613737188,0.4430263426587706,0.3071305841924399,0.4321450428396572,0.4403445734291505,0.3884310618066561,0.3543320243963572
0.2821593533487298,0.3210566910913999,0.4212397771719805,0.6985044548154433,0.3366076527698458,0.3363928407526388,0.4491525423728813,0.3241695303550973,0.4387239902080783,0.4440759167127326,0.3914421553090333,0.35842593366196
0.2918591224018476,0.3349884303895102,0.4358184188692663,0.6864128128977514,0.3391205025699601,0.3522257916475447,0.4547682254441494,0.3329037800687285,0.4444614443084455,0.4474387322646029,0.3946117274167988,0.3606817612164758
0.2905889145496536,0.3298785190898573,0.4256252222353917,0.6898069579974543,0.3427755568246717,0.3448829738412115,0.450479885644272,0.3307560137457044,0.445608935128519,0.4493735028560899,0.3968700475435816,0.3631046871083632
0.2854503464203233,0.3171519475510991,0.4050017778831338,0.6991408570216376,0.3476870359794403,0.3280556830350313,0.4457831325301205,0.3171534936998854,0.4373470012239902,0.4446747742767644,0.3935023771790808,0.3599715932826468
0.2853926096997691,0.3116081758580794,0.3916083916083915,0.7022168010182435,0.3540833809251857,0.3193360868900107,0.4367980396160914,0.3051260022909507,0.4312270501835984,0.441450156624286,0.3914421553090333,0.3579664132341883
0.2937644341801386,0.3179232549170845,0.3899490340168307,0.6948981756470088,0.3631067961165049,0.3238488603334863,0.4412905860731059,0.3144329896907216,0.4361995104039168,0.4449051041090842,0.3952456418383518,0.3620185479154482
0.3016743648960739,0.3247686077902044,0.3903046106435937,0.6874734832414086,0.3707595659623073,0.3294324613737188,0.4468041658158055,0.3267468499427262,0.4398714810281517,0.447300534365211,0.3972662440570523,0.364274375469964
0.2964203233256351,0.3232741997686078,0.3975346687211094,0.690708527789563,0.3620788121073672,0.3305797766559583,0.4388401061874616,0.3074169530355097,0.4326805385556915,0.441404090657822,0.3929477020602219,0.3589690032584176
0.2833718244803695,0.3141631315079059,0.4019201137845205,0.7017394993635978,0.3471159337521416,0.3246902248737953,0.4262813967735347,0.2807846506300114,0.4192931456548347,0.4346784595540814,0.3862123613312203,0.351867323920127
0.2798498845265589,0.3121384496721944,0.4041720990873533,0.7044442087399235,0.3424328954882925,0.3238488603334863,0.41974678374515,0.2700458190148911,0.4141676866585067,0.4324212271973466,0.3839144215530903,0.351491352661041
0.2849884526558892,0.3207192441187813,0.414720872347991,0.6973907509546032,0.3424328954882925,0.3340982101881597,0.4340412497447416,0.2878006872852233,0.4246481028151775,0.4378570112400958,0.3892234548335974,0.3571309215473306
0.2914549653579677,0.3252506748939452,0.4127059381296669,0.6919282986847687,0.3498572244431754,0.3370047422364999,0.4424137226873595,0.3026918671248568,0.43375152998776,0.4429242675511333,0.3940174326465928,0.3601804662043612
0.291512702078522,0.3224546856922484,0.4054758800521512,0.6934662706830717,0.3533980582524272,0.3324919687930243,0.4406779661016949,0.2972508591065292,0.4319920440636475,0.4426939377188134,0.3931854199683043,0.358801904921046
0.28770207852194,0.3170555341303509,0.4001422306507052,0.6981862537123461,0.3521416333523701,0.326449441639896,0.4348580763732897,0.2803550973654066,0.4202876376988984,0.4366592961120324,0.388391442155309,0.3537471802155568
0.2885103926096998,0.3166698804473583,0.3975346687211094,0.6980271531607976,0.3541976013706454,0.3253021263576564,0.4290381866448846,0.2784936998854525,0.4151621787025703,0.4351851851851852,0.3870443740095087,0.3526192664382989
0.2973441108545035,0.3261183956806788,0.4026312670380467,0.6887462876537972,0.3604797258709309,0.3344041609300902,0.4379211762303451,0.2941008018327606,0.4231946144430845,0.4400221116639027,0.3909270998415214,0.3572980198847021
0.3027136258660508,0.3347956035480139,0.4129429892141756,0.6815337293169282,0.3608223872073102,0.3446535107847636,0.446293649172963,0.3068442153493699,0.4315330477356181,0.4457803574718998,0.3952852614896989,0.360639986632133
0.2959584295612009,0.3346509834168916,0.4264549010311722,0.684662706830717,0.3476870359794403,0.3489368211717913,0.4400653461302837,0.3009736540664375,0.4283965728274174,0.4430163994840612,0.3928684627575277,0.3575904419751023
0.28770207852194,0.3278056305437717,0.4265734265734265,0.6922464997878659,0.3394631639063392,0.3435061955025241,0.4293444966305901,0.2766323024054983,0.4143971848225214,0.4352312511516492,0.3854992076069731,0.3496532709499541
0.2889145496535797,0.3261183956806788,0.4199359962071826,0.6926177344081459,0.343917761279269,0.3399877619703227,0.4252603634878497,0.2677548682703322,0.4091187270501836,0.43361894232541,0.3826465927099842,0.3480658367449244
0.2950923787528868,0.3306498264558427,0.418395164157876,0.6873143826898599,0.3507709880068532,0.3431237570751109,0.4369001429446599,0.2809278350515464,0.4163861689106487,0.4382255389718077,0.3878763866877971,0.3535800818781853
0.2969399538106236,0.3340725028924026,0.4230176603057959,0.6845566397963512,0.3503141062250143,0.3473305797766559,0.442107412701654,0.2867983963344788,0.4226591187270502,0.4410355629261102,0.3923534072900159,0.3579664132341883
0.2920323325635104,0.3309872734284612,0.4255066966931374,0.6884811200678829,0.3442604226156482,0.345647850696038,0.4353685930161322,0.2852233676975945,0.4204406364749082,0.4393311221669431,0.3914421553090333,0.3552510652519007
0.2793879907621248,0.3223582722715002,0.4302477183833116,0.6990878235044548,0.3295259851513422,0.3403702003977359,0.4209720236879722,0.2510022909507445,0.4029987760097919,0.4289202137460844,0.3816164817749604,0.3455175871000083
0.2745381062355658,0.3223582722715002,0.4400853383904231,0.701262197708952,0.3199314677327242,0.3435061955025241,0.4136205840310393,0.2401202749140893,0.3963433292533659,0.4249585406301824,0.3764263074484944,0.3408388336536051
0.2823903002309469,0.3259737755495565,0.4328552803129074,0.6956936784047517,0.3311250713877784,0.3441180969863851,0.4315907698590974,0.2650343642611684,0.4062882496940024,0.4309471162704994,0.3810221870047544,0.3456846854373799
0.2874133949191686,0.3289143848823756,0.4298921417565485,0.6917691981332201,0.3375214163335238,0.3454948753250726,0.4465999591586685,0.2915234822451317,0.4199816401468788,0.4366132301455685,0.3870443740095087,0.3512407051549837
0.2815819861431871,0.323370613189356,0.4282327841649875,0.697496817988969,0.332609937178755,0.3405231757687012,0.4473146824586481,0.2916666666666667,0.4184516523867809,0.4355076469504331,0.3856576862123613,0.3493608488595539
0.2711316397228638,0.3133436174315465,0.4249140689818655,0.7077853203224438,0.323929183323815,0.33149762888175,0.4435368593016132,0.2799255441008018,0.4108017135862913,0.4311313801363552,0.3817749603803487,0.344180800401036
0.2692263279445728,0.3108850752024682,0.4230176603057959,0.7100657615613067,0.3229011993146773,0.3288970475753403,0.4486420257300388,0.274770904925544,0.4072062423500611,0.4289662797125484,0.3788034865293185,0.3416325507561199
0.2759237875288684,0.3191766293868107,0.4295365651297854,0.7024289350869749,0.3263278126784695,0.337616643720361,0.4673269348580763,0.3044100801832761,0.4215881272949816,0.4378109452736319,0.3845483359746434,0.3476898654858384
0.2851039260969977,0.3253952950250675,0.4259807988621548,0.6947390750954603,0.3371787549971445,0.3414410279944929,0.4882581172146211,0.3370561282932417,0.4391829865361076,0.4478533259627787,0.3934627575277338,0.3556688110953296
0.2825635103926097,0.322261858850752,0.4234917624748133,0.6976559185405176,0.3359223300970874,0.3380755698332569,0.4937716969573207,0.3416380297823597,0.4416309669522644,0.4478993919292428,0.3940966719492869,0.3565460773665302
0.2744803695150116,0.3181160817585808,0.4297736162142941,0.7036487059821807,0.3248429468874929,0.3368517668655346,0.4892791505003063,0.3433562428407788,0.4391829865361076,0.4445826423438364,0.3893026941362916,0.3518255493357841
0.2704965357967667,0.3173447743925955,0.4361739954960294,0.7059291472210436,0.3177612792689892,0.3383050328897047,0.4966305901572391,0.3346219931271477,0.4349755201958384,0.443477059148701,0.3855388272583201,0.347439217979781
0.2721709006928406,0.322261858850752,0.4448263600805974,0.7024289350869749,0.3153626499143347,0.3450359492121768,0.5259342454564019,0.3512313860252004,0.44484394124847,0.4489589091579141,0.3892630744849445,0.3511571559862979
0.2755773672055427,0.328528731199383,0.4531231480384022,0.6974437844717861,0.3146773272415762,0.3526082300749579,0.5492138043700224,0.356815578465063,0.4520348837209302,0.4525981205085683,0.3923930269413629,0.355167516083215
0.2692263279445728,0.3287215580408793,0.4667535853976531,0.7002015273652948,0.3017704169046259,0.3571974912039162,0.5502348376557075,0.3334765177548682,0.4432374541003672,0.4468859406670352,0.3866481774960381,0.3508647338958977
0.2600461893764434,0.3246239876590822,0.4755244755244755,0.7066716164616037,0.2885208452312964,0.3568150527765029,0.5442107412701653,0.2928121420389461,0.4234241126070991,0.4359222406486088,0.3774960380348653,0.342718689949035
0.2534064665127021,0.3201407635942923,0.4782505629963257,0.712187102248621,0.2806396344945746,0.3541379837846107,0.5546252807841535,0.2697594501718213,0.416156670746634,0.43361894232541,0.3759904912836767,0.3421338457682346
0.2558891454965358,0.3244311608175858,0.4835842123977718,0.7087399236317352,0.2805254140491148,0.3592626587119473,0.5677966101694915,0.2638888888888889,0.4203641370869033,0.437488483508384,0.3809825673534073,0.347815189238867
0.2642032332563511,0.3290107983031238,0.4777764608273083,0.7023759015697921,0.2916047972587093,0.3609453877925654,0.563304063712477,0.2760595647193585,0.424954100367197,0.4430163994840612,0.3866085578446909,0.3547497702397861
0.2698614318706698,0.3290590050134979,0.4662794832286357,0.6997242257106492,0.3026841804683038,0.3572739788893987,0.527159485399224,0.2621706758304696,0.4190636474908201,0.4426939377188134,0.3871236133122029,0.3563372044448157
0.2687644341801386,0.3255881218665638,0.4599976294891549,0.7021637675010606,0.3046259280411194,0.3525317423894753,0.4714110680008168,0.2309564719358534,0.4047582619339045,0.4367053620784965,0.38256735340729,0.3516166764140697
0.2750577367205543,0.325106054762823,0.4458930899608865,0.6995651251591005,0.3176470588235294,0.3475600428331039,0.415356340616704,0.2121993127147766,0.3920593635250918,0.4323290952644186,0.3787242472266244,0.3478569638232099
0.2886836027713626,0.3272271500192827,0.4231361858480503,0.6921404327535001,0.3420902341519132,0.3418999541073887,0.4074943843169287,0.2414089347079037,0.4003977968176254,0.4379952091394878,0.3831220285261489,0.3528281393600134
0.2945727482678984,0.3237080601619745,0.4023942159535379,0.6913449299957574,0.357852655625357,0.3324919687930243,0.4236267102307535,0.2787800687285223,0.4147796817625458,0.4438916528468767,0.3888668779714739,0.3580917369872169
0.2924364896073903,0.3177786347859622,0.3922010193196634,0.695587611370386,0.3607081667618504,0.3244607618173474,0.4225035736164999,0.2819301260022909,0.4150856793145654,0.4423254099871015,0.3885103011093502,0.3576739911437881
0.2901847575057737,0.3101619745468569,0.3782150053336494,0.7007848960543063,0.3652769845802399,0.3139054612207434,0.4123953440882172,0.2694730813287514,0.4049877600979192,0.4367514280449604,0.3829239302694136,0.3527863647756705
0.2900692840646651,0.3076070188970304,0.3720516771364229,0.7022698345354264,0.3680182752712736,0.3098516138901637,0.4088217275883193,0.2757731958762887,0.4039167686658507,0.4367974940114244,0.3814976228209192,0.3513660289080123
0.2971709006928407,0.3118974161203239,0.3680218086997748,0.6966482817140432,0.3770416904625928,0.3119932690836775,0.4150500306309985,0.2936712485681557,0.41171970624235,0.4415422885572139,0.3845483359746434,0.3544573481493859
0.3049653579676675,0.3185017354415735,0.3682588597842836,0.6894357233771744,0.3846944603083952,0.3173474070674621,0.4254645701449867,0.3085624284077892,0.4186811505507956,0.4450893679749402,0.3887083993660856,0.3597209457765895
0.3023094688221709,0.3178268414963363,0.3720516771364229,0.6910267288926601,0.3801256424900058,0.3179593085513232,0.4178068205023483,0.2925257731958763,0.4111842105263157,0.4399299797309747,0.3858954041204437,0.3567967248725875
0.293418013856813,0.3123794832240648,0.3769112243688514,0.6981332201951633,0.3690462592804113,0.3152822395594309,0.4082091076169082,0.2677548682703322,0.3991738066095471,0.4326054910632025,0.379675118858954,0.3493608488595539
0.2941685912240185,0.3150308522946394,0.3818892971435344,0.6962770470937633,0.3673329525985151,0.3189536484625975,0.4094343475597304,0.2711912943871707,0.397796817625459,0.4340335360235858,0.3800713153724248,0.3498203692873255
0.3025981524249423,0.3255399151561898,0.390423136185848,0.6866249469664828,0.3716733295259852,0.3300443628575799,0.4188278537880334,0.2872279495990836,0.4054467564259486,0.4396075179657269,0.3850633914421553,0.3550004177458434
0.3062355658198615,0.3295410721172387,0.3927936470309351,0.682806533729317,0.3740719588806397,0.3339452348171944,0.4278129467020625,0.3004009163802978,0.4135556915544676,0.4441219826791966,0.3884706814580032,0.3583006099089313
0.3060623556581986,0.3253470883146934,0.3828375014815693,0.6851400084853627,0.3787549971444889,0.3274437815511702,0.4269961200735143,0.2956758304696448,0.4082007343941248,0.4399299797309747,0.3847464342313788,0.353663631046871
0.297459584295612,0.3196586964905515,0.3863932677491999,0.6922464997878659,0.3684751570531125,0.3240783233899341,0.410353277516847,0.2711912943871707,0.3929008567931456,0.4309471162704994,0.3774167987321711,0.3455593616843512
0.2972863741339492,0.3182124951793289,0.3834301291928411,0.6930950360627917,0.3697315819531697,0.322013155881903,0.4106595875025525,0.2644616265750286,0.3921358629130967,0.4302100608070758,0.3761093502377179,0.3448491937505222
0.3051385681293303,0.3264558426532973,0.3874599976294892,0.6849809079338142,0.3755568246716163,0.329814899801132,0.4245456401878701,0.2827892325315005,0.4018512851897184,0.4361986364473927,0.3811410459587956,0.3502381151307545
0.3058891454965358,0.3297821056691091,0.394097427995733,0.682806533729317,0.373043974871502,0.3345571363010555,0.4343475597304472,0.2923825887743413,0.4088892288861689,0.4400681776303667,0.3851822503961965,0.3547497702397861
0.2982101616628176,0.3235152333204782,0.3944530046224961,0.6898069579974543,0.3652769845802399,0.3297384121156494,0.4328160098019195,0.2855097365406643,0.4056762545899633,0.4382255389718077,0.3845483359746434,0.3544991227337288
0.2909930715935335,0.321683378326263,0.4047647267986251,0.694102672889266,0.3531696173615077,0.3316506042527152,0.4193383704308759,0.2563001145475372,0.3905293757649938,0.429703335175972,0.3767036450079239,0.3478569638232099
0.2909353348729792,0.3233224064789818,0.4089131207775275,0.6932541366143402,0.3511136493432325,0.334251185559125,0.4196446804165815,0.2577319587628865,0.3903763769889841,0.4303482587064677,0.374960380348653,0.346353078786866
0.3020207852193995,0.3329637485537987,0.4098613251155624,0.682806533729317,0.3617361507709881,0.3422059048493193,0.4330202164590565,0.2759163802978235,0.4003977968176254,0.4372120877096002,0.3807052297939778,0.3519508730888128
0.3070438799076213,0.3366756652526032,0.4086760696930188,0.6785108188375053,0.3672187321530554,0.3448064861557289,0.4439452726158872,0.290807560137457,0.4085832313341493,0.4426018057858854,0.385419968304279,0.3565460773665302
0.3033487297921478,0.3329155418434246,0.4070167121014578,0.6822231650403054,0.364363221016562,0.3412115649380449,0.4393506228303042,0.2842210767468499,0.4046052631578947,0.4401142435968307,0.3832805071315373,0.3546662210711003
0.2952655889145497,0.3260219822599306,0.4066611354746948,0.6897539244802715,0.3565962307252999,0.3356279638978124,0.4246477435164386,0.2646048109965636,0.3938953488372093,0.433665008291874,0.3777337559429478,0.3488177792630963
0.2892609699769053,0.3232741997686078,0.4122318359606495,0.6940496393720831,0.3479154768703598,0.3352455254703992,0.4221972636307943,0.2650343642611684,0.3922888616891065,0.4322830292979547,0.3771394611727416,0.3472721196424095
0.291512702078522,0.3278538372541458,0.4188692663268934,0.6904433602036486,0.3470017133066819,0.3410585895670797,0.4337349397590361,0.2825028636884306,0.402157282741738,0.4390086604016953,0.3831616481774961,0.3532458852034422
0.2971131639722864,0.3311318935595835,0.4154320256015171,0.6860946117946543,0.3540833809251857,0.3425883432767324,0.4448642025730038,0.3015463917525773,0.4130966952264382,0.445365763773724,0.3896988906497623,0.3586765811680173
0.2952655889145497,0.3282394909371384,0.4121133104183951,0.6885341535850658,0.3538549400342662,0.3391463974300138,0.4354706963447007,0.292955326460481,0.4105722154222766,0.4438455868804127,0.388391442155309,0.3566296265352159
0.2918591224018476,0.3244311608175858,0.409742799573308,0.6921934662706831,0.3516847515705312,0.3353985008413645,0.4204615070451296,0.2729095074455899,0.398485312117503,0.4371660217431362,0.3815768621236133,0.351115381401955
0.2959006928406467,0.3249614346317007,0.402749792580301,0.6900721255833686,0.3589948600799543,0.3335627963897812,0.4122932407596487,0.2624570446735395,0.3916768665850673,0.4339414040906578,0.3794374009508717,0.348901328431782
0.3013856812933025,0.3306980331662167,0.4055944055944055,0.6843975392448026,0.3631067961165049,0.339069909744531,0.4242393302021645,0.2754868270332187,0.4010097919216646,0.43767274737424,0.3841125198098257,0.3533712089564708
0.3041570438799076,0.3309390667180871,0.4004978072774683,0.6829656342808655,0.3682467161621931,0.337616643720361,0.4309781498876863,0.2890893470790378,0.4072062423500611,0.4405749032614704,0.3870047543581617,0.3567967248725875
0.3021939953810624,0.3301195526417277,0.4026312670380467,0.684291472210437,0.3653912050256996,0.337616643720361,0.4288339799877475,0.2859392898052691,0.405829253365973,0.4405288372950065,0.386053882725832,0.3565460773665302
0.292147806004619,0.3244793675279599,0.4092686974042906,0.6920343657191345,0.3521416333523701,0.3352455254703992,0.4194404737594445,0.2621706758304696,0.395578335373317,0.4341256679565137,0.3797147385103011,0.3496950455342969
0.2913972286374134,0.3248168145005785,0.411757733791632,0.6921934662706831,0.3503141062250143,0.3363163530671562,0.4142332040024504,0.2471363115693012,0.3901468788249694,0.4306246545052515,0.3769017432646593,0.3458935583590943
0.296189376443418,0.3288179714616274,0.4116392082493778,0.6877916843445057,0.3551113649343233,0.3395288358574269,0.4296508066162957,0.2733390607101947,0.4009332925336597,0.4360604385480008,0.3823296354992077,0.3513242543236695
0.298094688221709,0.3305534130350945,0.4119947848761408,0.6859885447602885,0.3568246716162193,0.340982101881597,0.4420053093730854,0.2928121420389461,0.4101897184822521,0.4400681776303667,0.3867274167987322,0.355167516083215
0.2920900692840647,0.3282876976475125,0.418750740784639,0.689966058549003,0.3475728155339806,0.3413645403090102,0.4400653461302837,0.2842210767468499,0.4075122399020808,0.4396996498986549,0.3861331220285262,0.3526610410226418
0.2871824480369515,0.3230813729271115,0.4160246533127889,0.6951103097157403,0.3440319817247287,0.3363163530671562,0.4262813967735347,0.2560137457044673,0.3950428396572827,0.4334346784595541,0.3808240887480191,0.3468961483833236
0.289838337182448,0.3219244118781335,0.407727865354984,0.6944739075095461,0.3506567675613935,0.3327979195349549,0.4199509904022871,0.2497136311569301,0.3905293757649938,0.4314077759351392,0.3790412044374009,0.3451833904252652
0.2963048498845266,0.3267450829155418,0.4061870333056774,0.6888523546881629,0.3577384351798973,0.3360868900107083,0.4264856034306718,0.2700458190148911,0.400703794369645,0.4357840427492169,0.3835578446909667,0.3505723118054975
0.2985565819861432,0.3308908600077131,0.4118762593338864,0.6855642766228256,0.3572815533980583,0.3412115649380449,0.4381253828874821,0.2793528064146621,0.4089657282741738,0.4391468583010872,0.3873613312202853,0.3541231514746428
0.2959006928406467,0.3270825298881604,0.4079649164394927,0.6888523546881629,0.3564820102798401,0.3369282545510172,0.4330202164590565,0.2723367697594501,0.406594247246022,0.4385940667035194,0.3860935023771791,0.3515331272453839
0.2901270207852194,0.320526417277285,0.4036979969183359,0.6951103097157403,0.3529411764705882,0.3303503135995104,0.4218909536450888,0.2507159221076747,0.3951958384332925,0.4332043486272342,0.3810221870047544,0.34597710752778
0.2875288683602772,0.321104897801774,0.4104539528268341,0.6960118795078489,0.3470017133066819,0.3329508949059201,0.4177047171737798,0.2386884306987399,0.3899938800489596,0.4281370923161968,0.3779714738510301,0.3423009441056061
0.2888568129330254,0.3319032009255688,0.4342775868199596,0.6894357233771744,0.3368360936607653,0.3492427719137219,0.4254645701449867,0.249856815578465,0.3974908200734394,0.4325594250967386,0.3826862123613312,0.3463948533712089
0.2972863741339492,0.3413035094485152,0.4399668128481688,0.6804200254560883,0.3424328954882925,0.358497781857121,0.4344496630590157,0.2647479954180984,0.4069002447980416,0.4379491431730238,0.3871236133122029,0.3509900576489264
0.2887413394919169,0.3442923254917084,0.4649757022638379,0.6827004666949512,0.3219874357509995,0.3689765947682423,0.4427200326730651,0.2820733104238259,0.4174571603427172,0.4429242675511333,0.3894611727416799,0.3515331272453839
0.2766166281755197,0.349787890474354,0.5033779779542491,0.6852460755197284,0.2914905768132496,0.3857273978889399,0.4641617316724524,0.3585337915234822,0.4630507955936352,0.4641606780910264,0.3999603803486529,0.3548750939928148
0.2706697459584296,0.3577419976860779,0.5352613488206709,0.6836020364870597,0.2702455739577384,0.4023252256386721,0.5090871962425975,0.5239117983963344,0.551484088127295,0.5097199189238991,0.4254754358161648,0.3687860305789958
0.2779445727482679,0.3834361743154647,0.5833827189759393,0.6661540093338989,0.2542547115933752,0.438197950130029,0.5393097814988769,0.6689576174112256,0.6489443084455325,0.5712179841533076,0.4723058637083994,0.4068009023310218
0.3002886836027714,0.4165541843424604,0.6189403816522461,0.6376219770895206,0.2592804111936037,0.4759828667584518,0.5131713293853379,0.6754009163802978,0.6907129742962057,0.6266814077759352,0.5369651347068146,0.4748099256412399
0.3413394919168592,0.4447069032009256,0.6038876377859428,0.6033092914722105,0.3070245573957739,0.4934985467339758,0.450888298958546,0.6373138602520045,0.7235312117503059,0.6961488852036116,0.6307448494453249,0.5802072019383407
0.4178983833718245,0.4751253374469726,0.5215123859191655,0.5513894781501909,0.4225014277555683,0.4910509407985314,0.3506228303042679,0.5913516609392897,0.7744033047735618,0.796941219826792,0.7639857369255152,0.7326008856211881
0.5020785219399538,0.5009159274971076,0.4121133104183951,0.4985680950360627,0.5585379782981155,0.4761358421294172,0.2570961813355115,0.540950744558992,0.8089810281517749,0.8844204901418833,0.8838351822503963,0.8717520260673405
0.5795034642032334,0.5173062090242961,0.293469242621785,0.4539669070852778,0.6922901199314678,0.4508949059201468,0.1688789054523177,0.4783791523482245,0.7873317013463892,0.9118297401879492,0.9409270998415216,0.9448157740830476
0.6101039260969977,0.5173544157346703,0.2307692307692307,0.4399130250318201,0.7527127355796689,0.4307021569527305,0.1265060240963855,0.4369988545246276,0.7239902080783354,0.8699097107057306,0.9151743264659272,0.9303617679004094
0.5646651270207853,0.5101234091785577,0.3062700011852554,0.4647327110733983,0.671387778412336,0.4492886645250114,0.1463140698386767,0.3656930126002291,0.5881272949816402,0.7180762852404644,0.7662836767036451,0.7909182053638565
0.4933025404157044,0.4569514076359429,0.3220338983050847,0.5267819261773441,0.5931467732724158,0.412268624751415,0.2192158464365938,0.2880870561282932,0.3900703794369645,0.4861341440943431,0.5251584786053883,0.5534296933745508
0.3884526558891455,0.3713362900115696,0.326774919995259,0.6220301230377598,0.4871501998857795,0.3458773137524858,0.3727792526036348,0.2951030927835051,0.2320226438188494,0.2639579878385849,0.2667591125198098,0.2816024730553931
0.2509815242494226,0.3075588121866564,0.4521749437003674,0.7202481968604157,0.2908052541404912,0.3357044515832951,0.5785174596691852,0.4189576174112256,0.1724296205630354,0.1152570480928689,0.0805467511885895,0.0799147798479405
0.1581408775981524,0.2664866949479367,0.5417802536446603,0.785479422995333,0.1557966876070817,0.3320330426801285,0.7045129671227282,0.472508591065292,0.1588892288861689,0.0639395614519992,0.0152139461172741,0.0074358760130336
0.1316974595842956,0.2385268029309679,0.5274386630318834,0.8130038184132371,0.1364934323243861,0.3052623527612054,0.7446395752501531,0.4919816723940434,0.1813800489596083,0.093698175787728,0.0391442155309033,0.0189238867073272
0.1321016166281755,0.2369841881989973,0.5226976413417092,0.8136402206194314,0.1392347230154197,0.3024323083983478,0.7985501327343271,0.6449026345933562,0.2906976744186046,0.1838032061912659,0.1137876386687797,0.0779513743838248
0.1464203233256351,0.2717412263787119,0.5787602228280194,0.7879719983029274,0.1264420331239292,0.3480954566314823,0.837043087604656,0.7351088201603665,0.3873164014687882,0.2689791781831583,0.1916402535657686,0.1474225081460439
0.1799653579676674,0.3060644041650597,0.5942870688633399,0.7536593126856173,0.1521416333523701,0.3803732599051552,0.819685521748009,0.7209335624284078,0.405140758873929,0.3171181131380136,0.2465530903328051,0.2015623694544239
0.2083718244803695,0.3174411878133436,0.5639445300462249,0.7343551124310563,0.1947458595088521,0.3796083830503289,0.7592403512354502,0.6514891179839634,0.3810434516523868,0.3402892942693938,0.2799128367670365,0.235190909850447
0.230715935334873,0.3141149247975318,0.5098968827782386,0.7259227831989817,0.2429468874928612,0.3595686094538779,0.7051255870941392,0.6821305841924398,0.4193696450428396,0.3782937166021743,0.3118462757527733,0.2645166680591528
0.2526558891454966,0.3213941380640185,0.4826360080597369,0.7118689011455239,0.2777841233580811,0.3565091020345724,0.6169083112109454,0.6354524627720504,0.4505813953488372,0.4120140040538051,0.3384706814580032,0.2892889965744841
0.2700346420323326,0.331999614346317,0.4731539646793884,0.6980801866779804,0.299600228440891,0.361863240018357,0.5125587094139269,0.4729381443298969,0.4335220318237454,0.4202137460843929,0.3513866877971474,0.302823961901579
0.2833140877598152,0.3356151176243733,0.4547825056299632,0.689966058549003,0.3215305539691605,0.3588037325990516,0.4527261588727791,0.370418098510882,0.4222766217870257,0.4236686935691911,0.3582805071315373,0.3120143704570139
0.2870092378752887,0.3301195526417277,0.4336849591086879,0.6912918964785744,0.3353512278697887,0.3476365305185865,0.4379211762303451,0.3296105383734249,0.4192166462668299,0.4257416620600701,0.3618462757527734,0.3165678001503885
0.2817551963048499,0.3164288468954879,0.4108095294535973,0.7012091641917693,0.3411764705882353,0.3294324613737188,0.433326526444762,0.3122852233676976,0.4136321909424725,0.4243136170996868,0.3614104595879556,0.3144372963489013
0.276905311778291,0.2945912070960278,0.3669550788194856,0.7154751803139584,0.3575099942889778,0.2979195349548723,0.4403716561159893,0.3109965635738831,0.4134791921664627,0.4262023217247098,0.3629160063391442,0.316024730553931
0.2869515011547344,0.2871673736984188,0.3281972265023112,0.7149448451421297,0.3860651056539121,0.2795624904390393,0.4482336124157647,0.3213058419243986,0.4182221542227662,0.4303943246729317,0.3663232963549921,0.3205363856629626
0.2954965357967667,0.3200443501735441,0.3916083916083915,0.692935935511243,0.3640205596801828,0.3260670032124827,0.4311823565448233,0.3095647193585338,0.4137851897184822,0.4276764326515571,0.3651743264659271,0.3195755702230763
0.2963048498845266,0.3238526802930968,0.3991940263126704,0.6904963937208315,0.3611650485436893,0.33149762888175,0.4366959362875229,0.3145761741122566,0.4196756425948592,0.4307167864381795,0.3684231378763867,0.3233770573982789
0.2920323325635104,0.3165734670266101,0.3899490340168307,0.6964361476453118,0.3613934894346088,0.3227780327367293,0.4342454564018786,0.3016895761741122,0.4109547123623011,0.4265708494564216,0.3637480190174326,0.3185312056145041
0.2848152424942263,0.3104030080987274,0.3897119829323219,0.703171404327535,0.3543118218161051,0.317806333180358,0.4189299571166019,0.2754868270332187,0.3956548347613218,0.4186935691910816,0.3554675118858955,0.3107193583423845
0.2824480369515012,0.3130543771693019,0.40109043498874,0.7027471361900721,0.346544831524843,0.3236193972770384,0.4208699203594037,0.2697594501718213,0.3921358629130967,0.4159296112032431,0.353486529318542,0.309048374968669
0.2876443418013857,0.3201407635942923,0.4078463908972383,0.6964891811624947,0.3484865790976585,0.3314211411962673,0.4387380028588931,0.2850801832760595,0.400703794369645,0.4193384927215773,0.3573692551505547,0.3111788787701562
0.2911662817551964,0.3222136521403779,0.4055944055944055,0.693731438268986,0.3529411764705882,0.3322625057365764,0.4461915458443944,0.2910939289805269,0.4030752753977968,0.4207665376819606,0.3591125198098256,0.3136435792463865
0.2837182448036952,0.3147898187427689,0.4026312670380467,0.7012091641917693,0.3471159337521416,0.3254551017286217,0.4385337962017561,0.277205040091638,0.3942013463892288,0.4157453473373871,0.3549524564183835,0.3096749937338123
0.2804849884526559,0.3074141920555341,0.3912528149816285,0.7067776834959695,0.3494003426613364,0.3159706287287747,0.4310802532162548,0.2603092783505155,0.3863219094247245,0.4099871015293901,0.3503565768621236,0.3049544657030662
0.2834295612009238,0.3092460470497493,0.3898305084745763,0.7043911752227408,0.3529411764705882,0.3169649686400489,0.4315907698590974,0.2593069873997708,0.3841034271725825,0.4091579141330385,0.3492472266244057,0.3030746094076363
0.289838337182448,0.3193212495179329,0.4012089605309944,0.6959058124734832,0.3537407195888064,0.3285910968334097,0.4407800694302634,0.2719072164948453,0.3919063647490819,0.4125667956513728,0.3530507131537242,0.306124154064667
0.2897806004618938,0.3224546856922484,0.4091501718620363,0.6942617734408145,0.3498572244431754,0.3336392840752638,0.4495609556871554,0.2800687285223368,0.3961903304773561,0.4133038511147964,0.3543581616481775,0.3073356170106107
0.2818129330254041,0.3166698804473583,0.4112836316226146,0.7010500636402206,0.3410622501427756,0.3297384121156494,0.4473146824586481,0.2664662084765177,0.3896113831089351,0.4096185737976783,0.3496038034865293,0.303199933160665
0.2721709006928406,0.309631700732742,0.4137726680099561,0.7093763258379295,0.3302113078241006,0.3249196879302432,0.442107412701654,0.252290950744559,0.3802019583843329,0.4052423069836005,0.3444928684627575,0.2981452084551758
0.2729214780600462,0.3123794832240648,0.4191063174114021,0.7075201527365295,0.3284980011422045,0.3288970475753403,0.4424137226873595,0.2468499427262314,0.3785954712362301,0.4039524599226092,0.3425515055467512,0.2968501963405464
0.2752886836027714,0.3181642884689549,0.4283513097072419,0.7032244378447179,0.3263278126784695,0.3363928407526388,0.4525219522156422,0.2580183276059565,0.3871634026927784,0.4078220011055832,0.3460380348652932,0.3004845851783774
0.2694572748267899,0.3194658696490551,0.4435225791157994,0.7051866779804836,0.3133066818960595,0.3423588802202845,0.465080661629569,0.2721935853379152,0.3934363525091799,0.4108623548922057,0.3485340729001585,0.303199933160665
0.2651847575057737,0.3139220979560355,0.4386630318833709,0.7102248621128553,0.3113649343232439,0.3363928407526388,0.460690218501123,0.2593069873997708,0.3861689106487148,0.4067624838769117,0.3440174326465927,0.2983540813768903
0.2627598152424942,0.3089568067875048,0.4314329738058551,0.7140432753500212,0.3125071387778413,0.3301208505430625,0.4485399224014703,0.2388316151202749,0.3748470012239902,0.3998986548737792,0.3359746434231379,0.2908346561951708
0.269919168591224,0.3166698804473583,0.4356998933270119,0.7065125159100551,0.3175328383780697,0.337616643720361,0.4476209924443536,0.2359679266895761,0.373470012239902,0.3982402800810761,0.3335974643423138,0.2884952794719693
0.2760969976905312,0.3268897030466641,0.4481450752637193,0.6980801866779804,0.3175328383780697,0.3497781857121004,0.4625280784153563,0.252147766323024,0.3818084455324357,0.4027547447945458,0.3375594294770206,0.2916701478820285
0.2797921478060046,0.3290107983031238,0.4458930899608865,0.6952163767501061,0.3223300970873787,0.350696037937892,0.464263835001021,0.2525773195876288,0.3825734394124847,0.4040906578220011,0.3381537242472267,0.2916701478820285
0.2755196304849885,0.3209602776706518,0.4347516889889771,0.701633432329232,0.3234723015419761,0.3406761511396665,0.4581376352869103,0.2323883161512027,0.3736995104039168,0.3995301271420675,0.3329239302694137,0.2859470298270532
0.2746535796766743,0.3152718858465098,0.4225435581367784,0.7051336444633007,0.3284980011422045,0.3322625057365764,0.4465999591586685,0.2126288659793814,0.3629895960832313,0.3935876174682144,0.3276545166402536,0.2802656863564207
0.2804272517321016,0.3174893945237177,0.4160246533127889,0.701262197708952,0.3372929754426043,0.3319565549946459,0.4474167857872166,0.2172107674684994,0.363142594859241,0.3938640132669984,0.3288431061806656,0.2806416576155067
0.2872979214780601,0.3238526802930968,0.4176840109043499,0.6946330080610946,0.3433466590519703,0.3374636683493957,0.4615070451296711,0.2392611683848797,0.3756884944920441,0.4004514464713469,0.3347464342313788,0.2869078452669396
0.2865473441108545,0.3242865406864636,0.4204100983762,0.6947390750954603,0.3412906910336951,0.3387639590026006,0.4669185215438022,0.2469931271477663,0.3813494492044063,0.4030772065597937,0.3369255150554676,0.2898320661709416
0.2734411085450347,0.3155129193983803,0.4256252222353917,0.7055579126007636,0.3258709308966305,0.3334098210188159,0.4497651623442924,0.2167812142038946,0.3656670746634026,0.3928966279712548,0.3282488114104596,0.2821037680675077
0.2624711316397229,0.3117045892788276,0.4387815574256252,0.7127174374204497,0.3086236436322102,0.3346336239865382,0.4344496630590157,0.1798396334478808,0.3483017135862913,0.3800442233278054,0.3171949286846275,0.2713259253070432
0.2607390300230947,0.3146451986116467,0.4495673817707716,0.7118689011455239,0.3017704169046259,0.3404466880832186,0.4408821727588319,0.1738258877434135,0.3479192166462668,0.3781094527363184,0.3153328050713154,0.2692789706742418
0.2644341801385681,0.319417662938681,0.4538343012919284,0.7075201527365295,0.3033695031410622,0.345647850696038,0.4595670818868694,0.1963058419243986,0.3592411260709914,0.3846047540077391,0.3202060221870048,0.2734982036928732
0.2676674364896074,0.3213459313536445,0.45170084153135,0.7049745439117522,0.3074814391776128,0.3464892152363469,0.4680416581580559,0.2058991981672394,0.3656670746634026,0.3873226460291137,0.3219889064976228,0.2751691870665886
0.2607390300230947,0.3170073274199769,0.455375133341235,0.7105430632159524,0.2989149057681325,0.3442710723573504,0.4574229119869307,0.1799828178694157,0.3544216646266829,0.3783858485351022,0.3144611727416799,0.2676915364692121
0.2554272517321016,0.3152236791361357,0.4618940381652246,0.7139902418328383,0.2904625928041119,0.3448829738412115,0.4370022462732285,0.1486254295532646,0.3377447980416157,0.3678828081813157,0.3062599049128368,0.2591695212632634
0.2592378752886836,0.3190802159660625,0.4636719212990399,0.7101187950784896,0.2934323243860651,0.3485543827443781,0.4385337962017561,0.1477663230240549,0.3385097919216646,0.3675142804496039,0.3048335974643423,0.2587935500041775
0.2658198614318707,0.3252988816043193,0.4653312788906009,0.7036487059821807,0.299143346659052,0.3540614960991279,0.4540535021441698,0.1709621993127147,0.3525091799265606,0.3766353418094711,0.3117670364500793,0.2653939343303534
0.2643764434180138,0.3254435017354416,0.4686499940737229,0.7042320746711922,0.2960593946316391,0.3552088113813676,0.4610986318153972,0.1758304696449026,0.3580936352509179,0.3796296296296296,0.3150158478605388,0.2678168602222407
0.2580254041570439,0.3218762051677594,0.4729169135948796,0.7091111582520153,0.2877213021130783,0.3537555453571975,0.4447620992444353,0.1388888888888888,0.3434057527539779,0.369356919108163,0.3072900158478606,0.260798730052636
0.2550230946882217,0.3203817971461628,0.4754059499822211,0.7113385659736953,0.2836093660765277,0.3533731069297843,0.4257708801306922,0.1056701030927834,0.3265758873929009,0.3584853510226645,0.2999207606973059,0.2524855877684017
0.2573325635103926,0.3256363285769379,0.4835842123977718,0.7073610521849809,0.2820102798400914,0.360180510937739,0.4290381866448846,0.1103951890034364,0.3298653610771113,0.3611111111111111,0.3011093502377179,0.2544489932325173
0.2662817551963048,0.3353258773621289,0.4891549128837263,0.6979210861264319,0.2881781838949172,0.369664983937586,0.4424137226873595,0.1285796105383734,0.3439412484700122,0.3707849640685462,0.3089936608557845,0.2623861642576656
0.2657621247113164,0.3373987659082144,0.4951997155386986,0.6970195163343232,0.2847515705311251,0.37325990515527,0.446702062487237,0.1380297823596792,0.3518206854345165,0.3756679565137276,0.313391442155309,0.2673991143788119
0.25635103926097,0.3315175472425761,0.5001777883133816,0.7046033092914721,0.2729868646487722,0.3702003977359645,0.4337349397590361,0.1175544100801832,0.3420287637698898,0.3688041275105951,0.3082805071315372,0.2628874592697802
0.2531177829099307,0.3341689163131508,0.5132155979613606,0.7046563428086551,0.263506567675614,0.3764723879455408,0.406779661016949,0.0788946162657503,0.3232864137086904,0.3576100976598489,0.2997622820919176,0.2554933578410894
0.2576789838337183,0.3367720786733513,0.5102524594050017,0.7011030971574035,0.2694460308395203,0.3776197032277803,0.4115785174596691,0.0853379152348224,0.3278763769889841,0.3600976598489036,0.3015055467511886,0.2587517754198346
0.2676674364896074,0.3455456999614346,0.511319189285291,0.6916631310988545,0.2788121073672188,0.3849625210341135,0.4286297733306106,0.1258591065292096,0.3466952264381884,0.3713377556661139,0.3100633914421553,0.2673991143788119
0.271824480369515,0.3489201696876205,0.5110821382007823,0.6878977513788714,0.2830382638492291,0.3874866146550405,0.437104349601797,0.1483390607101947,0.3605416156670746,0.3774645292058227,0.315095087163233,0.2719525440721865
0.2698036951501155,0.3457867335133051,0.5075263719331515,0.6905494272380144,0.2828098229583096,0.3838916934373566,0.428527670002042,0.1338774341351661,0.3549571603427172,0.3720287451630735,0.3111727416798732,0.2674408889631548
0.266743648960739,0.3453046664095642,0.5126229702500888,0.6922464997878659,0.2773272415762421,0.3851919840905614,0.4244435368593016,0.129581901489118,0.3546511627906976,0.3703243044039064,0.3096671949286846,0.2663965243545826
0.2697459584295612,0.3485345160046278,0.5144008533839043,0.6891175222740772,0.2793832095945174,0.3883279791953495,0.4385337962017561,0.1532073310423826,0.3696450428396572,0.3802745531601253,0.3162440570522979,0.2749603141448742
0.2772517321016166,0.3538372541457771,0.5120303425388171,0.682753500212134,0.2879497430039978,0.3916934373565856,0.4639575250153155,0.2003150057273768,0.3954253365973072,0.3967201031877649,0.3289619651347068,0.2860723535800819
0.2786374133949192,0.3543193212495179,0.5104895104895105,0.6817988969028426,0.2901199314677328,0.3916169496711029,0.4749846845007147,0.229524627720504,0.4135556915544676,0.4058872305140962,0.3365689381933439,0.2927562870749436
0.2747690531177829,0.3530659467797917,0.5152305321796847,0.684291472210437,0.2839520274129069,0.3921523634694813,0.4722278946293649,0.2275200458190149,0.4157741738066095,0.4049659111848167,0.3344690966719493,0.2906257832734564
0.2702078521939954,0.3548013883532588,0.5288609695389356,0.6854051760712769,0.2728726442033124,0.3979654275661618,0.4665101082295282,0.2322451317296678,0.4189106487148102,0.4039985258890732,0.3327654516640254,0.2894560949118556
0.272228637413395,0.3597666795217895,0.5370392319544861,0.6817458633856597,0.2709308966304969,0.4045433685176686,0.4819277108433735,0.245418098510882,0.429391064871481,0.4106780910263497,0.3380744849445325,0.2953880858885453
0.2785796766743649,0.366949479367528,0.5415432025601518,0.6749045396690708,0.2750428326670474,0.4116567232675539,0.5076577496426383,0.2883734249713631,0.4554008567931456,0.4268472452552055,0.3512678288431062,0.3088395020469546
0.2802540415704388,0.3731199382954108,0.5531587057010786,0.6707679253288077,0.2710451170759566,0.4202998317270919,0.5210332856851133,0.3055555555555555,0.4720777233782129,0.4364289662797125,0.3602218700475436,0.3176121647589606
0.2756928406466513,0.3757713073659853,0.569278179447671,0.6713512940178192,0.2588235294117648,0.4275661618479425,0.5154176026138452,0.2739117983963345,0.4654987760097919,0.4334807444260181,0.3593502377179081,0.3161918288913025
0.2706697459584296,0.3765426147319707,0.5814863102998696,0.6732605006364022,0.2479725870930897,0.4321554229769007,0.5037778231570349,0.2368270332187858,0.4577723378212974,0.4303021927400037,0.3591521394611727,0.3148132676079873
0.2752886836027714,0.3829541072117239,0.5876496384970961,0.667638947815019,0.249571673329526,0.4392687777267859,0.5080661629569123,0.2336769759450171,0.4657282741738066,0.4391468583010872,0.3679477020602218,0.3230846353078787
0.2894919168591224,0.3940416505977632,0.5857532298210264,0.6549639372083156,0.2645345516847516,0.4474529600734281,0.5144986726567286,0.2550114547537228,0.4836291309669522,0.4542104293348075,0.3816957210776545,0.337956387333946
0.3046189376443418,0.4052738141149248,0.5823159890956501,0.6418646584641493,0.2812107367218733,0.4551782163071745,0.495813763528691,0.2670389461626574,0.498470012239902,0.4674774276764327,0.3938193343898574,0.3506558609741833
0.3093533487297921,0.4089375241033551,0.581604835842124,0.6376750106067034,0.2862364363221017,0.4578552852990668,0.4481315090871962,0.2588774341351661,0.4997705018359852,0.4712548369264787,0.3996434231378764,0.3559612331857298
0.3173210161662818,0.4091303509448515,0.565603887637786,0.6339096308867204,0.3017704169046259,0.4528835857426954,0.3952419848887073,0.2489977090492554,0.4957160342717258,0.4711627049935508,0.4021790808240887,0.3595120728548751
0.3339491916859122,0.4111068260701889,0.5364466042432143,0.6251591005515486,0.3322672758423758,0.4450818418234664,0.3621605064325096,0.2769186712485681,0.5034424724602203,0.478533259627787,0.409310618066561,0.3673239201269947
0.3476905311778291,0.4108657925183185,0.5077634230176603,0.6190072125583368,0.3596801827527128,0.4355973688236194,0.3682867061466203,0.3383447880870561,0.5229498164014688,0.4923530495669799,0.4206814580031696,0.3784359595622024
0.3548498845265589,0.4051291939838026,0.4788431907075975,0.6189011455239711,0.3806967447173044,0.4216766100657794,0.37859914233204,0.3682703321878579,0.5316707466340269,0.4987562189054726,0.4260301109350238,0.3834489096833486
0.3539260969976905,0.3978981874276899,0.4629607680455138,0.6233029274501485,0.3874357509994289,0.4108918464127275,0.374208699203594,0.3656930126002291,0.527998776009792,0.4953473373871384,0.4239698890649763,0.3824045450747765
0.3525981524249423,0.3949575780948708,0.4584567974398483,0.6254773016546458,0.3883495145631068,0.4070674621385957,0.3637941596896059,0.3639747995418098,0.5228733170134638,0.4912474663718445,0.4225832012678289,0.3809424346227755
0.357621247113164,0.3988141149247975,0.4576271186440678,0.6210755197284683,0.3937178754997145,0.4098210188159706,0.3784970390034715,0.3927548682703322,0.5309822521419829,0.4968214483139856,0.4282884310618067,0.385871835575236
0.3641454965357968,0.401417277284998,0.4506341116510607,0.6166207042851082,0.4035408338092519,0.4096680434450053,0.4046354911170103,0.4284077892325314,0.5448286413708691,0.505942509673853,0.4358161648177496,0.3927646419918122
0.3662240184757506,0.3995372155804088,0.4418632215242385,0.6167267713194738,0.4098229583095374,0.405308245372495,0.405554421074127,0.4311282932416952,0.54406364749082,0.5052975861433573,0.4356973058637084,0.3922633469796975
0.3592956120092379,0.3912456613960663,0.4355813677847576,0.6244696648281715,0.4059394631639064,0.3967416245984397,0.3954461915458443,0.4027777777777777,0.5260862913096696,0.4937350285608992,0.4257527733755943,0.3826134179964909
0.353175519630485,0.3883050520632472,0.4409150171862036,0.6288714467543487,0.3973729297544261,0.3961297231145785,0.3822748621605064,0.3810137457044673,0.5107864137086903,0.4834162520729685,0.4171156893819334,0.3736736569471133
0.3548498845265589,0.3920169687620517,0.4466042432144126,0.6261137038608401,0.3962307252998287,0.400871959614502,0.3945272615887277,0.3876002290950744,0.5123929008567931,0.4843375714022481,0.4168779714738511,0.3737154315314562
0.3553117782909931,0.3956806787504821,0.4545454545454545,0.623833262621977,0.3929183323814963,0.4063790729692519,0.4190320604451705,0.4145189003436426,0.5236383108935129,0.4920305878017321,0.4228605388272583,0.380023393767232
0.3512124711316397,0.3886907057462399,0.4458930899608865,0.6296139159949088,0.3930325528269561,0.3980419152516445,0.4294465999591586,0.4232531500572737,0.5256272949816402,0.49212271973466,0.4235340729001585,0.3803158158576322
0.3387990762124712,0.3745661396066332,0.4366480976650468,0.6430313958421723,0.3851513420902342,0.3838152057518739,0.4180110271594853,0.4002004581901489,0.5113984088127295,0.4816657453473374,0.4154120443740095,0.3721697719107695
0.3312933025404157,0.3705167759352102,0.4421002726087472,0.6487059821807382,0.3750999428897773,0.3823619397277038,0.4062691443741065,0.3778636884306987,0.498546511627907,0.4713469688594067,0.4074881141045959,0.3635224329517921
0.3348152424942264,0.3749035865792518,0.4457745644186321,0.6447284683920238,0.3768132495716733,0.3871041762276273,0.4130079640596283,0.3858820160366552,0.5022184822521419,0.4718997604569744,0.4077258320126783,0.3635224329517921
0.336431870669746,0.3776995757809487,0.4492118051440085,0.6424480271531607,0.3766990291262136,0.3903931467033807,0.433326526444762,0.4156643757159221,0.5143818849449204,0.4782107978625391,0.4112123613312203,0.3671150472052803
0.3296766743648961,0.3747107597377555,0.4557307099679981,0.6471680101824353,0.3668760708166763,0.3901636836469328,0.441903206044517,0.4196735395189003,0.516906364749082,0.4789017873594989,0.4100237717908083,0.3661960063497367
0.3162240184757506,0.3680582337061319,0.4668721109399075,0.6570322443784472,0.348258138206739,0.3884044668808322,0.4278129467020625,0.395189003436426,0.5047429620563035,0.4697346600331675,0.4014263074484945,0.3585512574149887
0.3056004618937644,0.3654068646355572,0.4822804314329738,0.6633432329232074,0.3303255282695603,0.3913109989291723,0.4183173371451909,0.375,0.4958690330477356,0.462824765063571,0.3952852614896989,0.3519508730888128
0.3077367205542726,0.3708542229078288,0.4912883726443048,0.6593657191344929,0.3280411193603656,0.3985773290500229,0.4294465999591586,0.3910366552119129,0.5042839657282742,0.4679841533075364,0.3993264659270998,0.3557105856796724
0.3143187066974596,0.3778441959120709,0.4948441389119355,0.6525243954179041,0.3328383780696745,0.4052317576870123,0.4507861956299774,0.4266895761741122,0.5230263157894737,0.478671457527179,0.4090332805071315,0.3655276130002506
0.3147228637413395,0.3802063247204011,0.4999407372288729,0.651039456936784,0.3307824100513992,0.4087501912192137,0.4604860118439861,0.4414375715922107,0.530905752753978,0.4830477243412567,0.4131933438985737,0.3694961985128248
0.3094110854503464,0.3796278441959121,0.5094227806092213,0.6537441663131099,0.3209594517418618,0.4113507725256233,0.4476209924443536,0.4232531500572737,0.5247093023255813,0.4779344020637553,0.4091521394611727,0.3655693875845935
0.3086605080831409,0.3817971461627459,0.5161787365177195,0.652948663555367,0.316961736150771,0.4152516444852378,0.4354706963447007,0.4077892325315005,0.5196603427172583,0.4749401142435968,0.4068145800316957,0.3633971091987634
0.3141454965357968,0.388787119166988,0.5222235391726917,0.6465846414934238,0.319588806396345,0.4227474376625363,0.441903206044517,0.4251145475372279,0.5299112607099143,0.4820803390455132,0.4121632329635499,0.369412649344139
0.3240184757505774,0.3947165445430003,0.5165343131444826,0.6387887144675435,0.3320388349514563,0.4255774820253939,0.4569123953440882,0.4491695303550973,0.5463586291309669,0.4917081260364843,0.4200475435816165,0.3776422424596874
0.3286951501154734,0.3966448129579637,0.511674765912054,0.635553669919389,0.3390062821245003,0.4255774820253939,0.459669185215438,0.4547537227949598,0.5517900856793145,0.4976506357103372,0.4233359746434231,0.381485504219233
0.3238452655889146,0.39105283455457,0.5078819485599146,0.640857021637675,0.3360365505425471,0.4199173932996787,0.4393506228303042,0.427262313860252,0.5399326805385557,0.4915238621706284,0.4198890649762282,0.3785195087308881
0.3196304849884527,0.3878711916698804,0.5085931018134408,0.6445163343232924,0.3315819531696174,0.4176227627351996,0.424341433530733,0.4024914089347078,0.5298347613219094,0.4860880781278792,0.4172345483359747,0.375637062411229
0.3193418013856813,0.3919687620516776,0.5193789261585872,0.642394993635978,0.3259851513420903,0.4243536790576717,0.4305697365734123,0.4082187857961054,0.5349602203182374,0.4897272894785333,0.4211965134706815,0.3801487175202607
0.3228637413394919,0.3976571538758195,0.5261348820670854,0.6376750106067034,0.3263278126784695,0.4310081076946611,0.4488462323871757,0.4305555555555555,0.5504130966952264,0.4994932743688963,0.4292789223454834,0.3879605647923803
0.3219976905311779,0.3969822599305823,0.5262534076093397,0.6384705133644464,0.3252998286693318,0.4305491815817653,0.4543598121298754,0.4395761741122565,0.5537025703794369,0.5042380689146859,0.4327654516640254,0.3903417160999248
0.3157621247113164,0.3902815271885846,0.5226976413417092,0.644993635977938,0.3208452312964021,0.4240477283157411,0.4376148662446395,0.4195303550973654,0.541921664626683,0.4987562189054726,0.4282884310618067,0.3859971593282646
0.3121824480369515,0.3897994600848438,0.5287424439966812,0.646902842596521,0.3144488863506568,0.4256539697108765,0.4244435368593016,0.4056414662084764,0.5353427172582619,0.494149622259075,0.4262678288431062,0.3841173030328348
0.3202655889145496,0.400838796760509,0.5392912172573189,0.6371446754348749,0.31741861793261,0.4378155117026158,0.4313865632019603,0.4138029782359679,0.5401621787025703,0.498111295374977,0.4299920760697306,0.3891302531539811
0.3266743648960739,0.4032009255688392,0.5319426336375489,0.632901994060246,0.3272415762421474,0.4372800979042374,0.4492546457014498,0.4382875143184421,0.5533200734394125,0.5084300718629077,0.4378763866877971,0.3974851700225583
0.3244226327944572,0.4006941766293868,0.5304018015882422,0.6352885023334747,0.3257567104511708,0.434832491968793,0.4501735756585664,0.4427262313860252,0.5541615667074663,0.5111018979178183,0.4405705229793978,0.3997409975770741
0.3192263279445728,0.3965483995372156,0.5308759037572596,0.6399554518455663,0.3203883495145632,0.4316964968640048,0.4362875229732489,0.4201030927835051,0.5392441860465116,0.5037313432835822,0.4356180665610142,0.395020469546328
0.3174364896073903,0.3969822599305823,0.5356169254474339,0.6405388205345778,0.3162764134780126,0.4336086890010708,0.4251582601592812,0.39762313860252,0.5293757649938801,0.4969596462133776,0.4310221870047543,0.3910936586180967
0.3229214780600462,0.4043578866178172,0.5426099324404409,0.6339626644039031,0.3183323814962879,0.4417163836622303,0.4312844598733918,0.4072164948453608,0.5328182374541004,0.5008752533628156,0.4338748019017433,0.3942267524438132
0.3314665127020785,0.4102873119938295,0.5394097427995732,0.6268031395842172,0.3283837806967447,0.4453113048799143,0.4471104758015111,0.4291237113402061,0.5423806609547124,0.5075087525336283,0.4387876386687797,0.3998663213301028
0.3293302540415704,0.4104319321249517,0.5443878155742562,0.6277047093763257,0.323929183323815,0.447070521646015,0.4530324688584847,0.4266895761741122,0.5417686658506732,0.5071402248019163,0.4379952456418384,0.3989472804745592
0.3221709006928406,0.4063343617431546,0.5488917861799217,0.6332201951633432,0.3146773272415762,0.4453113048799143,0.4330202164590565,0.3890320733104238,0.5228733170134638,0.4959461949511701,0.4302694136291601,0.3907176873590107
0.3162240184757506,0.402477824913228,0.551617873651772,0.6380462452269834,0.3074814391776128,0.4430931620009178,0.4183173371451909,0.361397479954181,0.508032435740514,0.4865948037589829,0.4233755942947702,0.3844514997075778
0.3174942263279446,0.4045989201696876,0.5542254355813677,0.6363491726771319,0.3073672187321531,0.4456172556218449,0.4247498468450071,0.3675544100801833,0.509562423500612,0.4875621890547263,0.4243264659270999,0.3859553847439218
0.3207274826789839,0.4061897416120324,0.5513808225672632,0.6339626644039031,0.3120502569960023,0.4459232063637754,0.4394527261588727,0.3847365406643757,0.5169828641370869,0.4920305878017321,0.4279714738510302,0.3898404210878101
0.3182448036951502,0.401417277284998,0.5447433922010192,0.6377280441238863,0.3127355796687607,0.4400336545816123,0.4450684092301409,0.3851660939289805,0.5163708690330477,0.4912474663718445,0.4271394611727417,0.3890884785696382
0.3098729792147806,0.3902333204782106,0.5345501955671448,0.6477513788714466,0.3094231867504283,0.427872112589873,0.432918113130488,0.3596792668957617,0.5012239902080783,0.4817578772802653,0.4191759112519809,0.3806500125323753
0.3072748267898383,0.3849787890474354,0.5269645608628659,0.6517819261773441,0.310451170759566,0.4212941716383662,0.424137226873596,0.3462199312714776,0.4915085679314565,0.4743873226460292,0.4133122028526149,0.3744673740496281
0.3084872979214781,0.3855090628615504,0.5257793054403224,0.6509864234196012,0.3121644774414621,0.4212941716383662,0.4387380028588931,0.3645475372279496,0.4993115055079559,0.4771512806338677,0.4159270998415214,0.3775586932910018
0.3075057736720554,0.3857983031237949,0.5286239184544269,0.6512515910055154,0.3098800685322673,0.4224414869206058,0.464263835001021,0.395332187857961,0.5126223990208079,0.4856274184632393,0.4213549920760697,0.3834489096833486
0.3045034642032332,0.3837254145777092,0.5295721227924618,0.6537971998302927,0.3064534551684752,0.421141196267401,0.473861547886461,0.4040664375715922,0.5146113831089352,0.4877464529205823,0.421513470681458,0.3844932742919208
0.2971131639722864,0.3774103355187042,0.5292165461656986,0.6606385235468816,0.2993717875499715,0.4159400336545816,0.4641617316724524,0.3855956471935853,0.5048194614443084,0.4803758982863461,0.4157686212361331,0.3787283816526026
0.2945727482678984,0.3767836482838411,0.5328908379755838,0.6621234620280017,0.2950314106225015,0.4166284228239253,0.4641617316724524,0.3818728522336769,0.5016064871481029,0.4760917634051963,0.4121632329635499,0.3744255994652853
0.2964203233256351,0.3811222522175087,0.5397653194263363,0.6588884174798473,0.2935465448315249,0.4223649992351231,0.4890749438431692,0.4097938144329896,0.5130048959608323,0.4828634604754008,0.4170364500792393,0.3786866070682597
0.2951501154734411,0.3820381797146163,0.5447433922010192,0.6589944845142129,0.2898914905768133,0.4246596297996023,0.5234837655707575,0.4382875143184421,0.5272337821297429,0.4918002579694122,0.4229793977812995,0.3842844013702063
0.2863163972286374,0.3769764751253375,0.550314092686974,0.6658358082308018,0.2784694460308395,0.4224414869206058,0.5392076781703083,0.4420103092783505,0.5285342717258262,0.4912014004053806,0.4224247226624406,0.38332358593032
0.2727482678983834,0.3688777477824913,0.5582553040180158,0.6764955451845566,0.2612221587664192,0.4186171026464739,0.5307331018991218,0.4057846506300114,0.5113219094247246,0.4802837663534181,0.4140253565768622,0.3746344723869997
0.264607390300231,0.3700347088314693,0.5778120184899845,0.6796245226983453,0.2437464306110794,0.4258069450818418,0.5284868286706146,0.3718499427262313,0.4988525091799265,0.4731435415515018,0.408755942947702,0.3689949035007102
0.2631639722863741,0.3748553798688778,0.592627711271779,0.6776092490453967,0.2351798972015991,0.4344500535413798,0.546354911170104,0.36340206185567,0.4986230110159119,0.4731435415515018,0.4098256735340729,0.3702481410309967
0.2633371824480369,0.3805437716930197,0.60625814863103,0.6744272380144252,0.2287835522558538,0.4433226250573657,0.5703491933837043,0.3701317296678121,0.5060434516523867,0.4784871936613231,0.4146196513470682,0.3749268944773999
0.2614896073903002,0.3808330119552641,0.6107621192366954,0.6751166737378023,0.224785836664763,0.4450053541379838,0.5707576066979783,0.3623997709049255,0.5052019583843329,0.4777501381978994,0.414500792393027,0.3745509232183139
0.2621824480369515,0.3823274199768608,0.6130141045395282,0.6739499363597794,0.224328954882924,0.4469175462750497,0.540739228098836,0.3215922107674684,0.4886780905752753,0.4698267919660955,0.4085974643423137,0.3692455510067674
0.2687066974595843,0.3891245661396066,0.6163328197226502,0.667267713194739,0.2292404340376928,0.4534189995410739,0.4956095568715539,0.2989690721649484,0.4796511627906976,0.4659111848166575,0.4061014263074485,0.3672403709583089
0.2801963048498845,0.3970786733513305,0.6123029512860021,0.6576156130674585,0.2424900057110223,0.4583906990974453,0.4695732080865836,0.3074169530355097,0.483782129742962,0.4706559793624471,0.4112916006339144,0.3728381652602556
0.2920900692840647,0.3971268800617046,0.5880052151238592,0.6521001272804412,0.2660194174757282,0.4505889551782163,0.4442515826015927,0.3280355097365406,0.4910495716034271,0.478441127694859,0.4183042789223455,0.3796056479238031
0.2927251732101616,0.3857500964134208,0.5588479317292876,0.6580929147221043,0.2806396344945746,0.4321554229769007,0.4227077802736368,0.3424971363115692,0.490437576499388,0.4796388428229224,0.4186608557844691,0.3798980700142033
0.2884526558891455,0.3717701504049364,0.5331278890600923,0.6677450148493848,0.2888635065676757,0.4127275508643108,0.4076985909740657,0.3393470790378007,0.4810281517747858,0.4726368159203981,0.4124801901743264,0.3731723619349987
0.2865473441108545,0.3665156189741612,0.5242384733910157,0.6715103945693678,0.2912621359223301,0.4056906837999082,0.4022871145599346,0.3377720504009163,0.4746022031823745,0.4677998894416805,0.4095483359746434,0.3705405631213969
0.2954387990762125,0.3734573852680293,0.5229346924262178,0.6636084005091217,0.3006282124500286,0.4108153587272449,0.4139268940167449,0.363545246277205,0.4839351285189718,0.4739266629813894,0.4148177496038035,0.3763054557607151
0.3038683602771363,0.3773139220979561,0.5151120066374304,0.6575625795502757,0.3127355796687607,0.4113507725256233,0.4248519501735756,0.3900343642611684,0.4956395348837209,0.4828634604754008,0.4208399366085578,0.382947614671234
0.2983833718244804,0.3719629772464327,0.5132155979613606,0.6630250318201102,0.308280982295831,0.4064555606547346,0.433530733101899,0.3913230240549828,0.497781517747858,0.4845218352681039,0.4213946117274168,0.3842426267858634
0.2890300230946882,0.3615503278056305,0.5068152186796254,0.6730483665676708,0.3021130782410052,0.3962062108000612,0.415560547273841,0.3654066437571592,0.4817166462668298,0.474709784411277,0.4128367670364501,0.3761801320076865
0.28770207852194,0.3598630929425376,0.5053929121725731,0.6746393720831565,0.3014277555682468,0.3943705063484778,0.4041249744741678,0.3472222222222222,0.4688647490820073,0.466694306246545,0.4077654516640254,0.3697050714345392
0.2933025404157044,0.3659853451600462,0.5089486784402039,0.6686465846414934,0.3053112507138778,0.4004130335016062,0.414539513988156,0.3605383734249713,0.4734547123623011,0.4702413856642712,0.4108954041204438,0.3721697719107695
0.2941685912240185,0.3689259544928654,0.5144008533839043,0.6666313109885447,0.3035979440319817,0.404466880832186,0.4292423933020216,0.3774341351660938,0.4822521419828641,0.4767827529021559,0.4157686212361331,0.3772662712006016
0.2899538106235566,0.3664674122637871,0.5170084153135001,0.669919389053882,0.2981153626499144,0.4033960532354291,0.4378190729017766,0.3781500572737686,0.4833231334149326,0.4779344020637553,0.4158874801901743,0.3780599883031164
0.2824480369515012,0.3594774392595449,0.5151120066374304,0.6772380144251167,0.2916047972587093,0.3972005507113354,0.4214825403308147,0.3510882016036655,0.4677172582619339,0.4696885940667035,0.4089144215530904,0.3706658868744256
0.2801385681293303,0.3594774392595449,0.5199715538698588,0.6782986847687738,0.2870359794403198,0.3987303044209882,0.4113743108025321,0.3326174112256586,0.4579253365973072,0.4635618205269947,0.4042393026941363,0.3658618096749937
0.2852193995381062,0.3636232163517161,0.5196159772430958,0.6736847687738651,0.292175899486008,0.401942787211259,0.4266898100878087,0.3479381443298968,0.4656517747858017,0.4676156255758246,0.4072900158478606,0.3697468460188821
0.2931870669745958,0.3689259544928654,0.5164157876022283,0.6671086126431904,0.3016561964591662,0.4051552700015298,0.4427200326730651,0.3741408934707903,0.4794981640146878,0.4747558503777409,0.4135103011093503,0.3760548082546578
0.2933025404157044,0.3682992672580023,0.5146379044684128,0.6673737802291048,0.3025699600228441,0.4040079547192902,0.4452726158872779,0.374856815578465,0.4810281517747858,0.4755389718076286,0.4135103011093503,0.3765978778511153
0.2859699769053118,0.3617431546471269,0.5135711745881237,0.6743742044972422,0.2958309537407196,0.3985008413645403,0.4303655299162752,0.3509450171821305,0.4672582619339045,0.4676156255758246,0.4070522979397781,0.3703734647840254
0.2828521939953811,0.3600077130736598,0.5157046343487022,0.6767607127704709,0.2917190177041691,0.3978124521951965,0.4218909536450888,0.3361970217640321,0.4605263157894737,0.4632393587617469,0.4036053882725832,0.3674074692956805
0.2860854503464203,0.3713362900115696,0.5369207064122319,0.6690708527789563,0.2847515705311251,0.4136454030901025,0.427915050030631,0.3455040091638029,0.4672582619339045,0.466786438179473,0.4058637083993661,0.3705405631213969
0.2873556581986143,0.3744697261858851,0.5420173047291691,0.6667373780229104,0.283495145631068,0.4177757381061648,0.4493567490300184,0.3732817869415807,0.4822521419828641,0.4750783121429888,0.4122820919175912,0.3755117386582003
0.2840646651270208,0.3743251060547628,0.5484176840109044,0.6683283835383962,0.2772130211307825,0.4197644179287134,0.4527261588727791,0.3737113402061855,0.4833996328029376,0.4749861802100609,0.4129952456418383,0.375637062411229
0.2792725173210162,0.3703239490937138,0.5484176840109044,0.6727301654645735,0.2724157624214735,0.4165519351384427,0.4425158260159281,0.3548109965635739,0.4737607099143207,0.4691818684355998,0.4091125198098257,0.3716684768986548
0.2814087759815242,0.3729753181642884,0.5505511437714827,0.670290623674162,0.2735579668760708,0.4193054918158176,0.4359812129875433,0.3479381443298968,0.4694002447980416,0.4668325041459371,0.406933438985737,0.3698721697719108
0.2889145496535797,0.3807848052448901,0.554343961123622,0.6625477301654645,0.2791547687035979,0.4268012849931161,0.4453747192158463,0.3644043528064146,0.480798653610771,0.4726368159203981,0.4118462757527734,0.3753028657364859
0.2952078521939954,0.3842074816814501,0.5498399905179566,0.6577747136190072,0.2874928612221588,0.4280250879608383,0.4565039820298142,0.3831615120274914,0.4918145654834761,0.4797770407223144,0.4178288431061807,0.3809842092071183
0.2936489607390301,0.3781816428846895,0.5382244873770298,0.6618052609249045,0.2914905768132496,0.4194584671867829,0.4551766387584235,0.3845933562428407,0.4886780905752753,0.4784871936613231,0.41513470681458,0.3788537054056312
0.2874711316397229,0.3704685692248361,0.5319426336375489,0.6689117522274076,0.2884066247858367,0.4113507725256233,0.4348580763732897,0.3559564719358533,0.4745257037943696,0.468905472636816,0.4080824088748019,0.371250731055226
0.2882794457274827,0.3712880833011955,0.532298210264312,0.668063215952482,0.2890919474585952,0.4121156493804497,0.4219930569736572,0.3353379152348224,0.4658812729498164,0.4641606780910264,0.4043977812995246,0.3678252151391094
0.2984988452655889,0.3793386039336676,0.5311129548417683,0.65894145099703,0.2998286693318104,0.4181581765335781,0.4299571166020011,0.3487972508591065,0.473531211750306,0.4689976045697439,0.4088351822503962,0.3727963906759127
0.3037528868360277,0.3843521018125723,0.532653786891075,0.6537971998302927,0.3041690462592804,0.422594462291571,0.4484378190729017,0.3707044673539519,0.4850826193390453,0.4769209508015478,0.4149366085578447,0.3799816191828891
0.2939376443418014,0.3810740455071346,0.5447433922010192,0.660108188375053,0.2886350656767562,0.4238947529447758,0.4518072289156626,0.3665521191294387,0.4850061199510403,0.4745715865118851,0.4129160063391442,0.3786866070682597
0.2848729792147806,0.3769282684149633,0.5531587057010786,0.666525243954179,0.2756139348943461,0.4233593391463974,0.4365938329589545,0.342926689576174,0.4746022031823745,0.4666021743136171,0.4064976228209192,0.3723786448324839
0.2844110854503464,0.3778924026224451,0.5563588953419462,0.6662070428510819,0.2736721873215306,0.4251185559124981,0.4304676332448438,0.3257445589919817,0.4656517747858017,0.4607517965726921,0.4022187004754358,0.3684100593199098
0.2887990762124712,0.3834843810258388,0.5612184425743747,0.6611158252015273,0.2756139348943461,0.4310845953801438,0.4400653461302837,0.3427835051546392,0.474984700122399,0.4657729869172656,0.4061014263074485,0.3728381652602556
0.2929561200923788,0.386473197069032,0.5601517126940856,0.6575625795502757,0.2802969731581953,0.433149762888175,0.4545640187870124,0.361111111111111,0.486000611995104,0.47277501381979,0.4114500792393027,0.3785195087308881
0.2900115473441109,0.3829541072117239,0.5574256252222354,0.660850657615613,0.278697886921759,0.4294783539850084,0.4547682254441494,0.3573883161512027,0.4840116279069767,0.4730053436521098,0.411053882725832,0.3786866070682597
0.2845842956120092,0.3778924026224451,0.5561218442574375,0.6661540093338989,0.2740148486579098,0.4250420682270154,0.4433326526444762,0.3367697594501718,0.4721542227662179,0.46489773355445,0.4051109350237718,0.3725039685855125
0.2848152424942263,0.3796760509062861,0.5600331871518313,0.6650403054730589,0.2723015419760137,0.4277191372189077,0.4345517663875842,0.3214490263459335,0.4638157894736842,0.4595080154781647,0.4012282091917591,0.3680758626451666
0.2908198614318706,0.3883532587736213,0.5690411283631622,0.6575095460330929,0.27390062821245,0.4375095609606853,0.4496630590157239,0.3387743413516609,0.4729957160342717,0.464851667587986,0.4051505546751189,0.3722115464951123
0.2947459584295612,0.3910046278441959,0.5675002963138556,0.6542745014849385,0.2784694460308395,0.4391158023558207,0.4630385950581989,0.3619702176403207,0.4863831089351285,0.4736042012161415,0.411608557844691,0.3781017628874593
0.2910508083140878,0.3876783648283841,0.5669076686025838,0.6577747136190072,0.2751570531125072,0.4362857579929631,0.4653869716152746,0.3552405498281787,0.4856181150550795,0.472728947853326,0.4110142630744849,0.3767649761884868
0.2855658198614318,0.3833879676050906,0.56761882185611,0.6626537971998303,0.2693318103940606,0.4330732752026924,0.4494588523585868,0.3304696449026346,0.4714657282741738,0.4639764142251704,0.4042789223454833,0.3698721697719108
0.2825057736720554,0.3848823756266872,0.5775749674054759,0.6632371658888417,0.2615648201027984,0.4375095609606853,0.4394527261588727,0.3122852233676976,0.462438800489596,0.4585866961488852,0.4012678288431062,0.3669061742835659
0.2825635103926097,0.3903779406093328,0.590968353680218,0.6602142554094187,0.2551684751570531,0.4462291571057059,0.4516030222585256,0.3258877434135166,0.4703947368421052,0.4636078864934587,0.4061410459587956,0.3719191244047121
0.2870092378752887,0.3931739298110297,0.5887163683773853,0.6566079762409842,0.2606510565391206,0.447682423129876,0.4670206248723708,0.3493699885452462,0.4820991432068544,0.470794177261839,0.4112916006339144,0.376723201604144
0.2841224018475751,0.3883532587736213,0.5826715657224131,0.6605854900296987,0.2606510565391206,0.4419458467186782,0.4647743516438635,0.3445017182130584,0.4802631578947368,0.4693661323014557,0.4099445324881141,0.3746762469713426
0.2736720554272517,0.3809776320863864,0.5862273319900438,0.6694420873992363,0.2486579097658481,0.4372036102187547,0.4497651623442924,0.3132875143184421,0.4638922888616891,0.4601529390086604,0.401743264659271,0.3679923134764809
0.2704387990762125,0.3803027381411493,0.5910868792224725,0.6712982605006365,0.243061107938321,0.438197950130029,0.4432305493159077,0.297680412371134,0.4554773561811505,0.4541182974018795,0.3978605388272583,0.3636059821204779
0.2726905311778291,0.3838218279984574,0.5951167476591205,0.6683283835383962,0.2434037692747002,0.4423282851460914,0.4567081886869511,0.3165807560137457,0.4648102815177478,0.4587709600147412,0.4018621236133122,0.3673239201269947
0.2748845265588915,0.3822792132664867,0.5868199597013156,0.6681692829868476,0.249571673329526,0.438427413186477,0.4730447212579129,0.3485108820160366,0.4781211750305997,0.466786438179473,0.4072900158478606,0.3730888127663129
0.2704965357967667,0.3749517932896259,0.5778120184899845,0.6742151039456936,0.249571673329526,0.4297078170414563,0.478456197672044,0.3552405498281787,0.4787331701346389,0.4672010318776488,0.4067353407290016,0.3726292923385412
0.263972286374134,0.3699382954107212,0.5788787483702738,0.6799427238014425,0.242604226156482,0.4260364081382897,0.472636307943639,0.3424971363115692,0.4705477356181151,0.4617652478348996,0.4007527733755943,0.3672403709583089
0.2655889145496536,0.3733127651369071,0.5838568211449567,0.6773440814594823,0.2418046830382638,0.4303197185253174,0.4739636512150296,0.3419243986254295,0.4703182374541003,0.4610742583379399,0.3996038034865293,0.3665719776088227
0.270958429561201,0.3811222522175087,0.5920350835605073,0.6706088247772591,0.2431753283837807,0.4391922900413033,0.4933632836430466,0.3709908361970217,0.4844706242350061,0.4678920213746084,0.4059429477020602,0.3725039685855125
0.2727482678983834,0.383002313922098,0.592983287898542,0.6687526516758591,0.2444317532838378,0.4410279944928866,0.5116397794568103,0.3967640320733104,0.4993880048959608,0.4753086419753087,0.4124009508716323,0.3791043529116885
0.2669168591224019,0.3774585422290783,0.5912054047647267,0.6744802715316079,0.2396344945745288,0.4359798072510326,0.5169491525423728,0.4066437571592211,0.5034424724602203,0.4773816104661876,0.4122820919175912,0.3799398445985462
0.2585450346420324,0.3705649826455842,0.5915609813914898,0.6821170980059397,0.2311821816105083,0.430625669267248,0.5175617725137839,0.39762313860252,0.4971695226438188,0.4730974755850378,0.4070522979397781,0.3746762469713426
0.2546766743648961,0.3723004242190513,0.6037691122436885,0.6829126007636825,0.2213592233009709,0.4359798072510326,0.5303246885848478,0.3947594501718212,0.4957160342717258,0.4701953196978073,0.4048335974643423,0.3728381652602556
0.2578521939953811,0.3808812186656383,0.6183477539409742,0.6767607127704709,0.2174757281553398,0.4475294477589108,0.5561568307126812,0.4032073310423825,0.5048959608323134,0.4739727289478533,0.408716323296355,0.3759294845016292
0.258891454965358,0.3854126494408022,0.6272371696100509,0.6737908358082308,0.2142775556824672,0.4539544133394523,0.5710639166836838,0.4049255441008018,0.509562423500612,0.4776119402985075,0.4120047543581617,0.3794803241707745
0.2476905311778291,0.3763497878904743,0.6281853739480858,0.6839202375901569,0.2027412906910337,0.447070521646015,0.5780069430263427,0.3801546391752577,0.4996175030599755,0.4729592776856459,0.4077258320126783,0.3755952878268861
0.2357390300230947,0.3674797531816429,0.6307929358776816,0.6942617734408145,0.1897201599086236,0.4408750191219213,0.5759648764549724,0.3417812142038946,0.4809516523867809,0.4633314906946748,0.3989698890649762,0.3685771576572813
0.2358545034642032,0.3745661396066332,0.6479791395045632,0.6903372931692829,0.1814962878355226,0.4520422212023864,0.5738207065550337,0.308991981672394,0.467640758873929,0.457158651188502,0.3942551505546751,0.3650680925724789
0.2453810623556582,0.3843038951021982,0.6523645845679743,0.6806321595248196,0.1888063963449457,0.4612207434603028,0.5775985297120686,0.3105670103092783,0.4736077111383109,0.4603832688409803,0.3984152139461173,0.3695379730971677
0.2528868360277136,0.392209795603548,0.6565129785468768,0.6727831989817564,0.1942889777270132,0.4687930243230839,0.5640187870124566,0.3217353951890034,0.4840881272949816,0.4679841533075364,0.4041204437400951,0.3758877099172863
0.258891454965358,0.3921133821827999,0.6437122199834064,0.6701315231226135,0.2063963449457453,0.4645862016215389,0.5232795589136205,0.3108533791523482,0.4810281517747858,0.4695503961673116,0.4052694136291601,0.3768485253571726
0.2580254041570439,0.3823756266872349,0.6216664691240962,0.6758591429783622,0.216105082809823,0.4497475906379072,0.463855421686747,0.2782073310423826,0.4638157894736842,0.4622259074995393,0.4003169572107766,0.3720026735733979
0.2622401847575058,0.3762533744697262,0.597961360673225,0.6772910479422996,0.231753283837807,0.4372800979042374,0.4161731672452521,0.268041237113402,0.4532588739290085,0.4578957066519256,0.3973454833597464,0.3694544239284819
0.2725173210161663,0.3778924026224451,0.5808936825885979,0.6716694951209164,0.2501427755568247,0.4330732752026924,0.4158668572595466,0.302262313860252,0.4637392900856792,0.4622719734660034,0.4015451664025357,0.3740078536218565
0.2780023094688222,0.3768800617045893,0.5671447196870926,0.6697072549851506,0.2621359223300971,0.4277956249043904,0.4315907698590974,0.3392038946162657,0.4766676866585067,0.4701031877648793,0.4068938193343898,0.3795638733394603
0.277540415704388,0.368733127651369,0.5480621073841412,0.6744272380144252,0.2709308966304969,0.4151751567997552,0.4313865632019603,0.345217640320733,0.4771266829865361,0.4701031877648793,0.4057448494453249,0.377851115381402
0.2729214780600462,0.3607308137292711,0.537987436292521,0.6808973271107339,0.2711593375214164,0.4056141961144256,0.4210741270165407,0.3277491408934708,0.4667992656058751,0.4646674037221301,0.4012282091917591,0.3722533210794552
0.2747113163972287,0.3616467412263787,0.53632807870096,0.6796245226983453,0.2736721873215306,0.4057671714853908,0.4162752705738207,0.3287514318442153,0.4664167686658507,0.4641606780910264,0.4007131537242472,0.3728381652602556
0.281986143187067,0.3656961048978018,0.5314685314685315,0.6740560033941451,0.2832667047401485,0.4073734128805262,0.424341433530733,0.3497995418098511,0.474984700122399,0.4680302192740004,0.4047147385103011,0.3780599883031164
0.2842378752886836,0.3677689934438874,0.5319426336375489,0.6718816291896478,0.285208452312964,0.4092091173321095,0.432918113130488,0.3596792668957617,0.4798041615667074,0.4697807259996315,0.4070919175911252,0.3795220987551173
0.2774826789838338,0.3619841881989973,0.5315870570107858,0.6781395842172252,0.2788121073672188,0.4045433685176686,0.4301613232591382,0.3480813287514318,0.4720777233782129,0.4653123272526258,0.4030507131537242,0.3752193165678001
0.2700346420323326,0.3546085615117624,0.5288609695389356,0.6856173101400085,0.272644203312393,0.3978124521951965,0.4219930569736572,0.3274627720504008,0.4615973072215422,0.4596922793440207,0.3975039619651347,0.3694961985128248
0.2728637413394919,0.3571635171615889,0.5292165461656986,0.6829126007636825,0.2753854940034266,0.3998776197032277,0.4238309168878905,0.3261741122565865,0.4628212974296205,0.4598765432098766,0.3972662440570523,0.3696632968501963
0.2814087759815242,0.3664674122637871,0.5345501955671448,0.6738438693254136,0.2812107367218733,0.4090561419611442,0.4366959362875229,0.3402061855670102,0.4722307221542227,0.4636539524599226,0.4020206022187005,0.3741749519592279
0.2860277136258661,0.3729753181642884,0.5410691003911342,0.6681692829868476,0.2825813820673901,0.4162459843965121,0.4437410659587502,0.3465063001145475,0.4772796817625458,0.4659572507831215,0.4051109350237718,0.376723201604144
0.2807736720554273,0.3688295410721172,0.541661728102406,0.6728892660161221,0.2770988006853227,0.4131864769772066,0.4380232795589135,0.3326174112256586,0.4700122399020808,0.4624101713653953,0.4022979397781299,0.3729217144289414
0.275635103926097,0.3621288083301195,0.5357354509896882,0.6789350869749682,0.2749286122215877,0.4059201468563561,0.4275066367163569,0.315721649484536,0.4578488372093023,0.4561451999262945,0.3964738510301109,0.3671985963739661
0.2772517321016166,0.3629483224064789,0.534313144482636,0.6777153160797624,0.2772130211307825,0.4061496099128041,0.4291402899734531,0.3177262313860252,0.4582313341493267,0.4561912658927585,0.396513470681458,0.3674910184643662
0.2841224018475751,0.3712398765908214,0.5407135237643712,0.6699724225710649,0.2808680753854941,0.414792718372342,0.4376148662446395,0.3324742268041237,0.4674877600979192,0.4607057306062281,0.4015451664025357,0.3722950956637981
0.2840646651270208,0.3761087543386039,0.5528031290743155,0.6673207467119219,0.2750428326670474,0.422594462291571,0.4429242393302021,0.3380584192439863,0.4710067319461444,0.4622259074995393,0.4036846275752773,0.3752193165678001
0.2766166281755197,0.373264558426533,0.5612184425743747,0.6723589308442935,0.2636207881210737,0.4229769007189842,0.4389422095160302,0.324742268041237,0.4629742962056303,0.4581721024507094,0.3998415213946117,0.3727546160915699
0.2696882217090069,0.3678172001542615,0.5619295958279008,0.6785108188375053,0.2564249000571102,0.4189230533884044,0.4315907698590974,0.3099942726231386,0.4553243574051407,0.4536115717707757,0.3955229793977813,0.367574567633052
0.2675519630484989,0.3693598148862322,0.5699893327011971,0.678616885871871,0.2503712164477442,0.4227474376625363,0.437512762916071,0.3162943871706758,0.4589198286413709,0.4559609360604386,0.3973454833597464,0.3684100593199098
0.2719976905311778,0.3779888160431932,0.5820789380111413,0.6718816291896478,0.2490005711022273,0.4334557136301055,0.4518072289156626,0.3370561282932417,0.4688647490820073,0.4621798415330754,0.4023375594294771,0.3730888127663129
0.2742494226327944,0.3817489394523717,0.58693848524357,0.6687526516758591,0.2488863506567676,0.4380449747590638,0.4581376352869103,0.3479381443298968,0.4739902080783353,0.4653583932190898,0.4054675118858954,0.3758041607486005
0.2728637413394919,0.3810258387967605,0.5878866895816048,0.6697602885023334,0.2470588235294118,0.4377390240171332,0.4535429855013272,0.3409221076746849,0.4703947368421052,0.4632393587617469,0.4037638668779715,0.3737154315314562
0.2720554272517321,0.3773139220979561,0.5804195804195803,0.672199830292745,0.2499143346659052,0.4324613737188312,0.4470083724729425,0.327033218785796,0.4635862913096695,0.4600147411092685,0.4002773375594295,0.3708329852117971
0.2796766743648961,0.3804473582722715,0.5725968946307929,0.6669495120916419,0.2612221587664192,0.4323848860333486,0.4480294057586276,0.3321878579610538,0.4669522643818849,0.4624101713653953,0.4024960380348653,0.3733394602723703
0.2920900692840647,0.3898476667952179,0.5702263837857058,0.6560776410691557,0.2745859508852085,0.4390393146703381,0.4568102920155196,0.3492268041237113,0.4761321909424725,0.4682605491063203,0.4083201267828843,0.3794803241707745
0.2998267898383372,0.3959217123023525,0.5691596539054166,0.6492363173525667,0.2828098229583096,0.4435520881138137,0.459669185215438,0.3542382588774341,0.4791921664626683,0.4691358024691358,0.4092313787638669,0.3809006600384326
0.2983256351039262,0.3917759352101813,0.5619295958279008,0.6521531607976241,0.2847515705311251,0.4378919993880985,0.4506840923014089,0.3409221076746849,0.4722307221542227,0.4657729869172656,0.4055863708399366,0.3776004678753446
0.2972286374133949,0.3872927111453914,0.5531587057010786,0.6551230377598641,0.2879497430039978,0.4315435214930396,0.4415968960588114,0.3224513172966781,0.4622858017135862,0.4607057306062281,0.4012282091917591,0.3733812348567131
0.3023094688221709,0.3898476667952179,0.5491288372644305,0.6514106915570641,0.294802969731582,0.4323083983478659,0.4425158260159281,0.3251718213058419,0.4636627906976744,0.4607517965726921,0.4022979397781299,0.3732976856880273
0.3068129330254042,0.3983320478210567,0.5607443404053574,0.6446754348748409,0.2936607652769846,0.4427872112589873,0.455074535429855,0.3396334478808705,0.4731487148102815,0.4652662612861618,0.4064580031695721,0.3776840170440304
0.302540415704388,0.4023332047821056,0.5792343249970369,0.6444633008061094,0.2806396344945746,0.4518892458314211,0.4688584847866039,0.3460767468499426,0.4787331701346389,0.4679841533075364,0.408755942947702,0.3803993650263179
0.2979792147806004,0.3978499807173158,0.5776934929477302,0.6489711497666525,0.2767561393489435,0.4478353985008413,0.4619154584439452,0.3373424971363115,0.4739137086903304,0.4645292058227381,0.4060618066561014,0.378185312056145
0.2934757505773672,0.3894138064018512,0.5661965153490577,0.6557064064488757,0.2778983438035409,0.4374330732752027,0.4564018787012456,0.3276059564719358,0.4679467564259486,0.4626405011977151,0.4028129952456419,0.3753446403208288
0.297459584295612,0.3943790975703817,0.5702263837857058,0.6511455239711498,0.2799543118218161,0.442634235888022,0.4595670818868694,0.327319587628866,0.4687117503059975,0.4633314906946748,0.4029714738510301,0.3754699640738574
0.3046189376443418,0.4028634785962206,0.5763897119829323,0.6431904963937208,0.2839520274129069,0.4513538320330426,0.4675311415152133,0.3412084765177549,0.4755966952264382,0.4672010318776488,0.4066164817749604,0.3787701562369454
0.3052540415704388,0.4041650597763208,0.578286120659002,0.6421828595672464,0.2837235865219875,0.4530365611136607,0.4735552379007555,0.3506586483390607,0.4810281517747858,0.4695043302008476,0.4094690966719493,0.3816108279722617
0.3004041570438799,0.401369070574624,0.5813677847576152,0.6459482392872294,0.2774414620217019,0.4518127581459384,0.4643659383295895,0.3379152348224513,0.4746787025703795,0.4664639764142252,0.4071315372424723,0.3801487175202607
0.2967667436489608,0.3963555726957193,0.5765082375251867,0.6504030547305897,0.2761850371216448,0.4462291571057059,0.455687155401266,0.3224513172966781,0.4655752753977968,0.4619955776672195,0.4035261489698891,0.3768067507728298
0.301270207852194,0.4000192826841496,0.5763897119829323,0.6462664403903267,0.2807538549400343,0.4491356891540462,0.4594649785583009,0.327176403207331,0.4684057527539779,0.4636078864934587,0.4048732171156894,0.3785195087308881
0.3043879907621247,0.4085518704203625,0.5908498281379637,0.6401675859142978,0.2767561393489435,0.4606088419764418,0.4709005513579742,0.3387743413516609,0.47796817625459,0.4697346600331675,0.4104992076069731,0.3844932742919208
0.3062355658198615,0.4136135750096413,0.5995021927225317,0.6365613067458633,0.2744717304397487,0.4674162459843965,0.4734531345721869,0.3443585337915235,0.483093635250918,0.4719458264234384,0.4132329635499208,0.3881276631297519
0.2961316397228637,0.4117335133050521,0.6156216664691241,0.6421828595672464,0.2566533409480298,0.4710876548875631,0.4741678578721666,0.3439289805269186,0.4836291309669522,0.4705638474295191,0.4115293185419968,0.3850781184727212
0.2784064665127021,0.4143848823756267,0.658527912765201,0.6489181162494696,0.2185037121644775,0.4869970934679516,0.4896875638145803,0.3804410080183276,0.5046664626682986,0.478671457527179,0.4126782884310618,0.3819867992313476
0.269284064665127,0.4236405707674509,0.7000118525542254,0.6480165464573611,0.1894917190177042,0.5078017439192289,0.5368593016132325,0.5260595647193586,0.5794828641370869,0.5128984706099134,0.4290412044374009,0.3897986465034673
0.2719976905311778,0.4456710374084072,0.7486073248785112,0.6345990666100976,0.1688178183894917,0.540920911733211,0.5836226260976107,0.7077605956471936,0.6805385556915544,0.5657361341440944,0.4622820919175911,0.4131924137354833
0.2844688221709007,0.4762822984959506,0.7982695270830864,0.6120598218073822,0.1571673329525985,0.5812299219825607,0.5723912599550744,0.7521477663230239,0.7341646266829865,0.6134604754007739,0.5085974643423138,0.4582254156571141
0.3083140877598153,0.5008677207867336,0.8097665046817588,0.5876113703860839,0.175214163335237,0.6044821783692825,0.5063304063712477,0.6882875143184422,0.7448745410036719,0.6586972544683988,0.5722662440570523,0.5305372211546495
0.3663394919168591,0.5253567296567683,0.750859310181344,0.5474649978786593,0.2609937178754997,0.6048646167966957,0.4221972636307943,0.6533505154639175,0.7900091799265605,0.7465450525152018,0.6853407290015848,0.6573648592196507
0.4637413394919169,0.5599209409949866,0.6360080597368734,0.4837187102248621,0.4126784694460308,0.5952271684258834,0.3261180314478251,0.6341638029782358,0.8576346389228885,0.8638290031324857,0.8338748019017433,0.8234188319826217
0.5562355658198614,0.5872059390667181,0.5130970724191063,0.4262303775986422,0.5633352370074244,0.577176074651981,0.2308556258934041,0.5889175257731959,0.875,0.9351851851851852,0.9343898573692552,0.940721864817445
0.6112586605080832,0.6017643655996915,0.4359369444115206,0.3929783623249893,0.6550542547115935,0.5638672173780022,0.1510108229528282,0.5199026345933562,0.8141064871481029,0.9209508015478164,0.9455229793977814,0.9666221071100342
0.5894919168591225,0.604367527959892,0.487021453123148,0.4015167585914297,0.6089091947458596,0.5823772372648004,0.1370226669389422,0.4414375715922107,0.6960679314565483,0.8079970517781464,0.8446513470681457,0.8762219065920294
0.5239030023094688,0.5719726185885075,0.5418987791869148,0.4494590581247348,0.5175328383780697,0.5744225179746061,0.1889932611803144,0.3287514318442153,0.4960985312117503,0.5913948774645292,0.6350633914421554,0.6775002088729217
0.4441108545034642,0.4811993829541072,0.4826360080597369,0.5360097581671617,0.4671616219303255,0.483325684564785,0.3341841944047375,0.3160080183276059,0.3173194614443084,0.3630458817025981,0.3870047543581617,0.4268944773999499
0.3296766743648961,0.3888835325877362,0.4904586938485243,0.6393720831565549,0.3501998857795546,0.4125745754933456,0.5218501123136614,0.3814432989690721,0.1993574051407588,0.1671733922977704,0.1591917591125198,0.1875261091152143
0.2040993071593533,0.3284323177786348,0.5997392438070404,0.7302715316079762,0.1733866362078812,0.3998776197032277,0.6794976516234428,0.4394329896907216,0.1585832313341493,0.0747650635710337,0.0455625990491283,0.0660456178461024
0.1530600461893764,0.2892402622445044,0.6081545573070997,0.775296987696224,0.1187892632781268,0.3715006883891693,0.7364713089646722,0.4243986254295532,0.1476438188494492,0.0708494564215957,0.0333201267828843,0.0462026902832316
0.1522517321016166,0.282153875819514,0.5923906601872704,0.7795927025880356,0.1255282695602513,0.3607924124216001,0.8078415356340615,0.6092497136311569,0.2681303549571603,0.1617836742214852,0.1028129952456418,0.0972094577658952
0.1669168591224018,0.3260219822599306,0.6700248903638734,0.7487271955876114,0.1026841804683038,0.4206057824690225,0.860424749846845,0.7721935853379152,0.4060587515299877,0.2665376819605675,0.1905705229793978,0.1706491770406884
0.1935912240184757,0.3645391438488237,0.7100865236458457,0.715263046245227,0.1097658480868075,0.4641272755086431,0.8599142332040023,0.8105670103092784,0.4543298653610771,0.3316288925741663,0.2568938193343899,0.2328933077115882
0.2159930715935335,0.3761087543386039,0.6925447433922011,0.6986105218498091,0.1403769274700171,0.4676457090408444,0.8147845619767204,0.73868843069874,0.4355110159118727,0.3580707573244887,0.2926703645007924,0.2687359010777843
0.2306581986143187,0.3778441959120709,0.6667061751807514,0.6909206618582944,0.1673329525985151,0.4606853296619244,0.7841535634061669,0.7522909507445589,0.47421970624235,0.3931730237700387,0.322662440570523,0.294427270448659
0.2428406466512702,0.3816043193212495,0.6509422780609221,0.6832308018667798,0.1869788692175899,0.4585436744684106,0.7278946293649172,0.7154925544100801,0.5144583843329253,0.4286898839137645,0.3503169572107765,0.3169019968251316
0.258256351039261,0.3975125337446973,0.6584093872229465,0.6674268137462877,0.1986293546544832,0.4736117485084901,0.649581376352869,0.5690148911798396,0.5127753977968176,0.4458264234383638,0.3688985736925515,0.3354916868577157
0.2765588914549653,0.4122155804087929,0.6571056062581485,0.6509333899024183,0.2173615077098801,0.4848554382744378,0.5942413722687359,0.461340206185567,0.5106334149326806,0.4544868251335913,0.3809429477020603,0.3488177792630963
0.2823325635103926,0.4133243347473969,0.6478606139623088,0.6476983453542638,0.2275271273557967,0.4827902707664065,0.5420665713702266,0.3934707903780068,0.5008414932680538,0.4555463423622628,0.3839936608557844,0.3531623360347564
0.278810623556582,0.4007423833397608,0.6240369799691833,0.6561837081035214,0.2355225585379783,0.4650451277344347,0.4839697774147437,0.3483676975945017,0.4803396572827417,0.447346600331675,0.3784072900158479,0.3473974433954382
0.2785796766743649,0.3894620131122252,0.5967761052506815,0.6624946966482816,0.2484294688749286,0.4472999847024628,0.4622217684296507,0.3380584192439863,0.4720777233782129,0.4423714759535656,0.3753961965134707,0.3425933661960063
0.2868937644341802,0.3879676050906286,0.5761526608984235,0.6595248196860416,0.2665905197030269,0.4394982407832339,0.4659995915866857,0.3542382588774341,0.4775856793145654,0.4456421595725078,0.3784469096671949,0.3445985462444648
0.2971709006928407,0.3928846895487852,0.5671447196870926,0.6521001272804412,0.2810965162764135,0.4404925806945082,0.4769246477435164,0.3757159221076747,0.4903610771113831,0.4527363184079602,0.3849445324881141,0.3508647338958977
0.3022517321016166,0.3968376397994601,0.5664335664335663,0.6475922783198981,0.2864648772130212,0.4433991127428484,0.4786604043291811,0.381729667812142,0.4935740514075887,0.4548092868988391,0.3866481774960381,0.3526192664382989
0.2991916859122402,0.3913420748168145,0.5592035083560507,0.6519940602460754,0.2869217589948601,0.4367446841058589,0.4637533183581784,0.3666953035509736,0.4832466340269277,0.4500184263865856,0.3824881141045959,0.3483582588353246
0.2969976905311778,0.3857983031237949,0.5500770416024654,0.6560776410691557,0.2892061679040548,0.4293253786140431,0.4594649785583009,0.3513745704467353,0.4749082007343941,0.4467016768011793,0.3781299524564184,0.3432199849611497
0.3036374133949192,0.3875819514076359,0.5408320493066255,0.6520470937632583,0.3001713306681897,0.4277956249043904,0.4668164182152337,0.352233676975945,0.4771266829865361,0.4476229961304588,0.3784469096671949,0.3430528866237781
0.3094110854503464,0.3938488237562669,0.5443878155742562,0.6459482392872294,0.3041690462592804,0.4339146397430014,0.4781498876863385,0.365836197021764,0.4850061199510403,0.4508015478164732,0.3822503961965135,0.347105021305038
0.3054272517321016,0.3930293096799075,0.5505511437714827,0.6482286805260925,0.2973158195316962,0.4352149303962062,0.4809066775576883,0.3666953035509736,0.4862301101591187,0.4495577667219458,0.3821711568938193,0.3475227671484668
0.2965357967667437,0.3861839568067874,0.551973450278535,0.6560776410691557,0.287835522558538,0.4303197185253174,0.4700837247294261,0.342926689576174,0.4723837209302325,0.4422793440206376,0.374960380348653,0.3411730303283482
0.291743648960739,0.3827612803702275,0.5533957567855873,0.6601612218922359,0.2823529411764706,0.4280250879608383,0.4647743516438635,0.3283218785796105,0.462515299877601,0.4386401326699834,0.3710380348652932,0.3358258835324589
0.295323325635104,0.3861357500964134,0.554343961123622,0.6566610097581671,0.2854368932038835,0.4310081076946611,0.4715131713293853,0.3357674684994273,0.4665697674418604,0.4408052330937903,0.3725039619651347,0.3367866989723452
0.3,0.3900404936367142,0.554343961123622,0.6523652948663554,0.2901199314677328,0.4340676151139667,0.4837655707576067,0.3519473081328751,0.4737607099143207,0.4449511700755482,0.3751584786053883,0.3391678502798896
