    {0.1606560617,	0.5019599534,	0.7239314944,	0.6633040460,	0.1906494961,	0.6428867690,	0.7880526811,	0.4962940855,	0.3571586007,	0.2475626075,	0.1851468495,	0.1578562283},
    {0.1680663966,	0.5063036339,	0.7213549560,	0.6570126912,	0.1956886898,	0.6433015346,	0.7901222954,	0.4981843506,	0.3590793161,	0.2493468425,	0.1873032303,	0.1608438510},
    {0.1821954352,	0.5176395805,	0.7186268566,	0.6434537368,	0.2039940276,	0.6470344255,	0.8043273754,	0.5053474606,	0.3639283353,	0.2546995476,	0.1944192867,	0.1700506067},
    {0.1856535915,	0.5170039199,	0.7155198545,	0.6418266623,	0.2075401269,	0.6445458316,	0.8060206961,	0.5070884943,	0.3657860764,	0.2561014465,	0.1969206883,	0.1740137796},
    {0.1774528209,	0.5020658968,	0.7111245832,	0.6539754854,	0.2064203061,	0.6342803816,	0.7910630292,	0.4968910113,	0.3586070090,	0.2495698719,	0.1894596110,	0.1661484056},
    {0.1644106314,	0.4876575908,	0.7108214610,	0.6685106845,	0.2004479283,	0.6270219826,	0.7774223895,	0.4874894294,	0.3513964545,	0.2435162174,	0.1812653642,	0.1556612402},
    {0.1660903073,	0.4868100434,	0.7089269476,	0.6680767979,	0.2024076148,	0.6252592285,	0.7768579492,	0.4860468587,	0.3505463018,	0.2430382973,	0.1797558977,	0.1549295775},
    {0.1783420611,	0.4939082530,	0.7046074568,	0.6577719926,	0.2108062710,	0.6257776856,	0.7888993415,	0.4922150923,	0.3538524513,	0.2460651246,	0.1838530211,	0.1613925980},
    {0.1800217370,	0.4933785359,	0.7028645044,	0.6570126912,	0.2127659574,	0.6243260058,	0.8000000000,	0.4951002338,	0.3553323467,	0.2478812209,	0.1856643809,	0.1640143894},
    {0.1661891117,	0.4804534379,	0.7043043346,	0.6713309470,	0.2053004853,	0.6189340523,	0.7912511759,	0.4876386609,	0.3513019931,	0.2441534442,	0.1801440462,	0.1577952564},
    {0.1530481178,	0.4690115478,	0.7062746287,	0.6843475431,	0.1979283315,	0.6146827043,	0.7816556914,	0.4789832363,	0.3457602569,	0.2385777098,	0.1734161384,	0.1476129504},
    {0.1538385535,	0.4756859837,	0.7103667778,	0.6804425643,	0.1956886898,	0.6208004977,	0.7845719661,	0.4792319554,	0.3454453856,	0.2378448990,	0.1734161384,	0.1470032315},
    {0.1617429108,	0.4925309885,	0.7163534404,	0.6675344397,	0.1957820082,	0.6331397760,	0.7975540922,	0.4843555688,	0.3486255864,	0.2418275664,	0.1785483245,	0.1549905494},
    {0.1653986760,	0.4985697637,	0.7178690512,	0.6624362729,	0.1965285554,	0.6371837412,	0.8062088429,	0.4867432721,	0.3502629176,	0.2441853056,	0.1824298098,	0.1609048229},
    {0.1585811679,	0.4894586291,	0.7166565626,	0.6707885888,	0.1941022770,	0.6317917876,	0.7978363123,	0.4830124857,	0.3472716395,	0.2415726757,	0.1792383663,	0.1569416499},
    {0.1484043079,	0.4854327789,	0.7215822977,	0.6784900748,	0.1862635312,	0.6332434674,	0.7873000941,	0.4760483510,	0.3437450801,	0.2380360670,	0.1745805839,	0.1500518261},
    {0.1508744195,	0.4964508952,	0.7274931798,	0.6715478902,	0.1838372527,	0.6426793861,	0.7873000941,	0.4755011690,	0.3446267200,	0.2390237686,	0.1750549877,	0.1500518261},
    {0.1659915028,	0.5121305223,	0.7271142771,	0.6551686734,	0.1911160881,	0.6500414766,	0.7939793039,	0.4814704273,	0.3472401524,	0.2428471293,	0.1802734291,	0.1579172002},
    {0.1656950894,	0.5134018434,	0.7282509851,	0.6547347869,	0.1902762225,	0.6514931564,	0.7907808090,	0.4794806745,	0.3461695897,	0.2433887721,	0.1820847889,	0.1611487104},
    {0.1600632349,	0.5073630681,	0.7282509851,	0.6609176700,	0.1876633072,	0.6484861054,	0.7611476952,	0.4715714073,	0.3423281589,	0.2401389154,	0.1788502178,	0.1574294250},
    {0.1579883411,	0.5053501430,	0.7284025462,	0.6629786311,	0.1865434864,	0.6476565740,	0.7393226717,	0.4650549669,	0.3391479581,	0.2375262856,	0.1751412429,	0.1530394488},
    {0.1614464974,	0.5091641064,	0.7284783268,	0.6591821239,	0.1881298992,	0.6496267109,	0.7397930386,	0.4667960006,	0.3403444693,	0.2395016887,	0.1775563894,	0.1558441558},
    {0.1767611896,	0.5158385422,	0.7215065171,	0.6473587157,	0.1997013811,	0.6480713397,	0.7507055503,	0.4745062926,	0.3447526685,	0.2443446122,	0.1842411696,	0.1643802207},
    {0.1823930442,	0.5176395805,	0.7184752955,	0.6433452652,	0.2042739828,	0.6468270427,	0.7550329257,	0.4797791374,	0.3480903051,	0.2470209648,	0.1879501445,	0.1691970002},
    {0.1763659717,	0.5135077868,	0.7202182480,	0.6487688469,	0.2003546099,	0.6459975114,	0.7457196613,	0.4748047555,	0.3456657955,	0.2436436628,	0.1846724458,	0.1649899396},
    {0.1696472681,	0.5108592012,	0.7234010306,	0.6537585421,	0.1952220978,	0.6469307341,	0.7335841957,	0.4671939512,	0.3411631349,	0.2399796087,	0.1806184500,	0.1582220596},
    {0.1752791226,	0.5191227884,	0.7249924219,	0.6464909426,	0.1968085106,	0.6520116134,	0.7356538100,	0.4690344725,	0.3430523631,	0.2414133690,	0.1820416613,	0.1606609353},
    {0.1880248987,	0.5247377900,	0.7191573204,	0.6366200239,	0.2065136245,	0.6507673165,	0.7504233302,	0.4777396408,	0.3483736893,	0.2465430447,	0.1878638892,	0.1686482532},
    {0.1856535915,	0.5172158068,	0.7156714156,	0.6418266623,	0.2074468085,	0.6447532144,	0.7611476952,	0.4806247824,	0.3509556346,	0.2484228637,	0.1904084185,	0.1713310164},
    {0.1740934690,	0.4966627821,	0.7098363140,	0.6586397657,	0.2055804405,	0.6306511821,	0.7511759172,	0.4747052679,	0.3455398470,	0.2430064360,	0.1835511278,	0.1613316261},
    {0.1652998716,	0.4814069287,	0.7056683844,	0.6713309470,	0.2040873460,	0.6203857321,	0.7386641580,	0.4650052231,	0.3386756510,	0.2359013573,	0.1754862639,	0.1519419548},
    {0.1673747653,	0.4779107956,	0.7015762352,	0.6719817768,	0.2075401269,	0.6159270012,	0.7423330198,	0.4642093220,	0.3364085771,	0.2341171223,	0.1741493078,	0.1523077861},
    {0.1780456477,	0.4834198538,	0.6973325250,	0.6631955744,	0.2151922359,	0.6157196184,	0.7542803387,	0.4693329354,	0.3382348311,	0.2362199707,	0.1773407513,	0.1577342845},
    {0.1774528209,	0.4826782498,	0.6972567445,	0.6639548758,	0.2150055991,	0.6153048528,	0.7609595484,	0.4715714073,	0.3389905224,	0.2371758109,	0.1778582827,	0.1591976099},
    {0.1653986760,	0.4689056044,	0.6967262807,	0.6776223018,	0.2095931318,	0.6081501452,	0.7549388523,	0.4666965130,	0.3359047829,	0.2336392022,	0.1727260965,	0.1509664045},
    {0.1561110562,	0.4601123000,	0.6975598666,	0.6872762773,	0.2047405748,	0.6044172543,	0.7457196613,	0.4605282794,	0.3315595579,	0.2292741987,	0.1670763790,	0.1434058899},
    {0.1593716036,	0.4698590952,	0.7019551379,	0.6804425643,	0.2035274356,	0.6121941103,	0.7573847601,	0.4653036860,	0.3338896061,	0.2318231058,	0.1698796740,	0.1460276812},
    {0.1685604189,	0.4844792881,	0.7053652622,	0.6678598546,	0.2057670773,	0.6217337204,	0.7746942615,	0.4745560364,	0.3393683680,	0.2364748614,	0.1758744124,	0.1533443083},
    {0.1667819385,	0.4873397606,	0.7086996059,	0.6674259681,	0.2028742068,	0.6253629200,	0.7824082785,	0.4759986072,	0.3413520577,	0.2381316511,	0.1781601760,	0.1568197061},
    {0.1529493133,	0.4783345693,	0.7129433162,	0.6795747912,	0.1937290034,	0.6239112401,	0.7759172154,	0.4706262747,	0.3374476526,	0.2347224877,	0.1733298831,	0.1498079385},
    {0.1425748444,	0.4716601335,	0.7161260988,	0.6887948801,	0.1868234416,	0.6227706346,	0.7657572907,	0.4626175198,	0.3327875563,	0.2300388708,	0.1676801656,	0.1420035364},
    {0.1471198498,	0.4858565526,	0.7227947863,	0.6789239614,	0.1849570735,	0.6342803816,	0.7690498589,	0.4633636771,	0.3333543248,	0.2309628497,	0.1688446112,	0.1452960185},
    {0.1571979053,	0.5015361797,	0.7262806911,	0.6653650071,	0.1875699888,	0.6443384488,	0.7883349012,	0.4714221758,	0.3380144211,	0.2355190212,	0.1751843706,	0.1540149991},
    {0.1538385535,	0.4974043861,	0.7259775690,	0.6693784575,	0.1861702128,	0.6420572377,	0.7979303857,	0.4747550117,	0.3398406751,	0.2372076722,	0.1768663475,	0.1566367904},
    {0.1435628890,	0.4865981566,	0.7260533495,	0.6805510359,	0.1812243374,	0.6368726669,	0.7901222954,	0.4707257623,	0.3364715514,	0.2336710635,	0.1721223099,	0.1499908542},
    {0.1377334256,	0.4827841932,	0.7277963019,	0.6857576744,	0.1773982829,	0.6361468270,	0.7764816557,	0.4634134209,	0.3319374036,	0.2298158415,	0.1682408246,	0.1442594964},
    {0.1465270230,	0.4963449518,	0.7307517430,	0.6739342662,	0.1797312430,	0.6448569058,	0.7686735654,	0.4620703378,	0.3320318650,	0.2310902950,	0.1704834606,	0.1483446131},
    {0.1612488884,	0.5066214641,	0.7268111549,	0.6605922551,	0.1891564016,	0.6471381170,	0.7700846660,	0.4658508680,	0.3345508360,	0.2346269037,	0.1756587743,	0.1555392964},
    {0.1584823634,	0.5018540100,	0.7254471052,	0.6646057056,	0.1886898096,	0.6439236831,	0.7696142992,	0.4659503557,	0.3341100161,	0.2337985089,	0.1758744124,	0.1560270715},
    {0.1481078945,	0.4899883462,	0.7249924219,	0.6763206422,	0.1840238895,	0.6378058897,	0.7535277516,	0.4579913446,	0.3295128940,	0.2287325559,	0.1697502911,	0.1493201634},
    {0.1439581069,	0.4807712681,	0.7216580782,	0.6833712984,	0.1841172079,	0.6309622563,	0.7359360301,	0.4499328458,	0.3254510532,	0.2244949978,	0.1639280631,	0.1416377050},
    {0.1517636597,	0.4863862697,	0.7196120036,	0.6762121705,	0.1890630832,	0.6323102447,	0.7321730950,	0.4510272099,	0.3273717686,	0.2271076276,	0.1675076552,	0.1447472715},
    {0.1647070448,	0.4954974044,	0.7162018794,	0.6643887623,	0.1972751027,	0.6344877644,	0.7421448730,	0.4589364771,	0.3337951447,	0.2330975594,	0.1752274982,	0.1560880434},
    {0.1694496591,	0.4949676873,	0.7122612913,	0.6620023864,	0.2019410228,	0.6315844048,	0.7514581373,	0.4676416455,	0.3382033439,	0.2368571975,	0.1793246216,	0.1609048229},
    {0.1604584527,	0.4771691917,	0.7062746287,	0.6761036989,	0.2013811124,	0.6187266694,	0.7470366886,	0.4660498433,	0.3366289871,	0.2344994584,	0.1758744124,	0.1565148467},
    {0.1517636597,	0.4685877741,	0.7068808730,	0.6853237878,	0.1969018290,	0.6149937785,	0.7380997178,	0.4592846839,	0.3326616077,	0.2306442363,	0.1711303748,	0.1491982196},
    {0.1613476929,	0.4788642865,	0.7068808730,	0.6746935676,	0.2013811124,	0.6199709664,	0.7449670743,	0.4614236681,	0.3337321704,	0.2319824125,	0.1729417346,	0.1516980672},
    {0.1735006422,	0.4920012713,	0.7069566535,	0.6613515566,	0.2070735349,	0.6263998341,	0.7604891816,	0.4695816545,	0.3388330867,	0.2372395335,	0.1798852805,	0.1610267667},
    {0.1737970556,	0.4900942896,	0.7053652622,	0.6621108580,	0.2081933557,	0.6244296972,	0.7663217310,	0.4719693578,	0.3396202651,	0.2386095711,	0.1814378747,	0.1627949515},
    {0.1649046537,	0.4738849454,	0.7005910882,	0.6753443974,	0.2069802165,	0.6132310245,	0.7529633114,	0.4637118838,	0.3346767845,	0.2339259542,	0.1750981153,	0.1544418023},
    {0.1582847545,	0.4619133383,	0.6971051834,	0.6851068446,	0.2060470325,	0.6049357113,	0.7485418627,	0.4596826344,	0.3306779181,	0.2299751482,	0.1699659292,	0.1484055850},
    {0.1645094358,	0.4689056044,	0.6973325250,	0.6781646599,	0.2087532661,	0.6085649108,	0.7565380997,	0.4629657265,	0.3327875563,	0.2313133244,	0.1711735024,	0.1501737699},
    {0.1734018378,	0.4842674012,	0.7014246741,	0.6653650071,	0.2104329974,	0.6188303608,	0.7717779868,	0.4713226882,	0.3386756510,	0.2367616135,	0.1782895588,	0.1585269191},
    {0.1704377038,	0.4853268355,	0.7045316763,	0.6664497234,	0.2071668533,	0.6215263376,	0.7770460960,	0.4742575735,	0.3408167763,	0.2387370165,	0.1798421529,	0.1588317786},
    {0.1570991009,	0.4708125861,	0.7043043346,	0.6812018657,	0.2010078387,	0.6142679386,	0.7716839135,	0.4702283241,	0.3376050883,	0.2354552985,	0.1739767973,	0.1512712639},
    {0.1472186543,	0.4665748490,	0.7088511670,	0.6887948801,	0.1935423666,	0.6153048528,	0.7687676388,	0.4663483062,	0.3350231430,	0.2328108074,	0.1699659292,	0.1457228218},
    {0.1507756151,	0.4803474944,	0.7160503183,	0.6797917345,	0.1908361329,	0.6269182912,	0.7752587018,	0.4698801174,	0.3373217041,	0.2350092398,	0.1736749040,	0.1503566856},
    {0.1635213912,	0.4980400466,	0.7189299788,	0.6637379325,	0.1950354610,	0.6375985068,	0.7864534337,	0.4758493757,	0.3417928776,	0.2395016887,	0.1804028119,	0.1595634413},
    {0.1628297599,	0.5007945757,	0.7214307366,	0.6627616878,	0.1931690929,	0.6406055579,	0.7911571025,	0.4762473263,	0.3435561573,	0.2413815077,	0.1820847889,	0.1620632888},
    {0.1530481178,	0.4861743829,	0.7184752955,	0.6755613407,	0.1903695409,	0.6314807134,	0.7825964252,	0.4715714073,	0.3411316477,	0.2383546804,	0.1776857722,	0.1563929029},
    {0.1504792017,	0.4802415510,	0.7162018794,	0.6800086777,	0.1905561777,	0.6270219826,	0.7795860771,	0.4705267870,	0.3401555465,	0.2362836934,	0.1752706258,	0.1529784769},
    {0.1581859500,	0.4924250450,	0.7190057593,	0.6694869292,	0.1924225457,	0.6349025301,	0.7832549389,	0.4730637218,	0.3416039548,	0.2382590964,	0.1773407513,	0.1554173526},
    {0.1681652011,	0.5075749550,	0.7221885420,	0.6563618614,	0.1952220978,	0.6445458316,	0.7943555974,	0.4781375914,	0.3434616959,	0.2413815077,	0.1814810023,	0.1611487104},
    {0.1652998716,	0.5170039199,	0.7310548651,	0.6531077123,	0.1884098544,	0.6551223559,	0.7964252117,	0.4776898970,	0.3436506187,	0.2425922386,	0.1834217449,	0.1634046704},
    {0.1540361624,	0.5107532578,	0.7352985753,	0.6624362729,	0.1804777902,	0.6550186645,	0.7806208843,	0.4691339601,	0.3389590352,	0.2387051552,	0.1788933454,	0.1573074813},
    {0.1506768106,	0.5030193876,	0.7323431343,	0.6682937412,	0.1806644270,	0.6492119453,	0.7614299153,	0.4609759737,	0.3343619132,	0.2353915759,	0.1755293915,	0.1527955612},
    {0.1563086652,	0.5071511813,	0.7309033040,	0.6629786311,	0.1843038447,	0.6502488594,	0.7578551270,	0.4618713625,	0.3350231430,	0.2361881093,	0.1774701341,	0.1552344369},
    {0.1676711787,	0.5145672211,	0.7275689603,	0.6529992407,	0.1916759985,	0.6515968478,	0.7613358420,	0.4651544546,	0.3366919613,	0.2386095711,	0.1813516194,	0.1609048229},
    {0.1656950894,	0.5033372179,	0.7211276144,	0.6598329537,	0.1947555058,	0.6416424720,	0.7536218250,	0.4625180321,	0.3352120659,	0.2375900083,	0.1801440462,	0.1615755137},
    {0.1583835589,	0.4823604195,	0.7116550470,	0.6745850960,	0.1970884658,	0.6249481543,	0.7294449671,	0.4523702930,	0.3295443811,	0.2312496017,	0.1734161384,	0.1535881958},
    {0.1570002964,	0.4704947558,	0.7042285541,	0.6814188090,	0.2010078387,	0.6140605558,	0.7118532455,	0.4456051336,	0.3255455147,	0.2275218250,	0.1694483978,	0.1486494726},
    {0.1665843296,	0.4703888124,	0.6968020612,	0.6762121705,	0.2100597238,	0.6089796765,	0.7201317027,	0.4516241357,	0.3277496143,	0.2297521188,	0.1716910338,	0.1519419548},
    {0.1775516253,	0.4748384363,	0.6915732040,	0.6679683263,	0.2185516984,	0.6075279967,	0.7334901223,	0.4595831468,	0.3323467364,	0.2338940929,	0.1768232199,	0.1596244131},
    {0.1747851003,	0.4703888124,	0.6905122764,	0.6717648335,	0.2178984696,	0.6046246371,	0.7373471308,	0.4600805850,	0.3335117604,	0.2346587651,	0.1775132617,	0.1616974575},
    {0.1637190001,	0.4526962602,	0.6863443468,	0.6868423907,	0.2151922359,	0.5931148901,	0.7279397930,	0.4527184997,	0.3291035612,	0.2301344549,	0.1706128434,	0.1531613926},
    {0.1569014919,	0.4434791821,	0.6849802971,	0.6953031782,	0.2128592758,	0.5877229365,	0.7211665099,	0.4470974481,	0.3250732076,	0.2263110941,	0.1649199983,	0.1465154564},
    {0.1684616145,	0.4570399407,	0.6858138830,	0.6820696388,	0.2178051512,	0.5948776441,	0.7298212606,	0.4524697806,	0.3287257155,	0.2293379214,	0.1697502911,	0.1523077861},
    {0.1756743405,	0.4722957940,	0.6911943013,	0.6702462306,	0.2178984696,	0.6059726255,	0.7510818438,	0.4626175198,	0.3358418086,	0.2357420506,	0.1781170483,	0.1615145418},
    {0.1732042288,	0.4699650387,	0.6914216429,	0.6727410782,	0.2165920119,	0.6050394027,	0.7602069614,	0.4687360096,	0.3385182153,	0.2384184031,	0.1813947471,	0.1646241083},
    {0.1586799723,	0.4549210721,	0.6918005456,	0.6884694652,	0.2094998134,	0.5979883866,	0.7568203198,	0.4649554793,	0.3364400642,	0.2348180718,	0.1760469228,	0.1565148467},
    {0.1498863749,	0.4458099375,	0.6919521067,	0.6979064975,	0.2052071669,	0.5935296557,	0.7531514581,	0.4616226434,	0.3346767845,	0.2326515007,	0.1732436279,	0.1503566856},
    {0.1573955143,	0.4531200339,	0.6914974235,	0.6900965398,	0.2090332214,	0.5968477810,	0.7594543744,	0.4655524051,	0.3382978053,	0.2364748614,	0.1783326864,	0.1567587342},
    {0.1681652011,	0.4653035279,	0.6919521067,	0.6779477167,	0.2138857783,	0.6030692659,	0.7720602070,	0.4730637218,	0.3428004660,	0.2413496463,	0.1846724458,	0.1649899396},
    {0.1658926983,	0.4625489988,	0.6917247651,	0.6806595075,	0.2128592758,	0.6016175861,	0.7739416745,	0.4740585982,	0.3437135930,	0.2417319824,	0.1850605943,	0.1663922932},
    {0.1507756151,	0.4473990889,	0.6924825705,	0.6966048378,	0.2053004853,	0.5947739527,	0.7638758231,	0.4668457444,	0.3388015995,	0.2357739119,	0.1775563894,	0.1568197061},
    {0.1397095149,	0.4414662570,	0.6967262807,	0.7057164551,	0.1974617395,	0.5946702613,	0.7571025400,	0.4602795603,	0.3339525804,	0.2316956605,	0.1714322681,	0.1488933602},
    {0.1499851793,	0.4596885263,	0.7018035768,	0.6908558412,	0.1991414707,	0.6071132310,	0.7665098777,	0.4658508680,	0.3371012941,	0.2345631810,	0.1754000086,	0.1535272239},
    {0.1638178046,	0.4802415510,	0.7059715065,	0.6727410782,	0.2031541620,	0.6199709664,	0.7861712135,	0.4757001443,	0.3433357473,	0.2405212515,	0.1825160650,	0.1621242607},
    {0.1603596483,	0.4749443797,	0.7048347984,	0.6772968869,	0.2022209780,	0.6166528411,	0.7939793039,	0.4799781127,	0.3449730785,	0.2416682597,	0.1828610860,	0.1620632888},
    {0.1479102855,	0.4622311686,	0.7052894817,	0.6906388979,	0.1960619634,	0.6107424305,	0.7891815616,	0.4773416903,	0.3423911332,	0.2399796087,	0.1796265149,	0.1566977623},
    {0.1453413694,	0.4591588092,	0.7050621400,	0.6935676321,	0.1949421426,	0.6090833679,	0.7840075259,	0.4744565488,	0.3422651847,	0.2393742433,	0.1784620693,	0.1555392964},
    {0.1556170339,	0.4704947558,	0.7053652622,	0.6821781104,	0.1997013811,	0.6147863957,	0.7925682032,	0.4792319554,	0.3460121540,	0.2423692092,	0.1830335964,	0.1621242607},
    {0.1670783519,	0.4870219303,	0.7082449227,	0.6674259681,	0.2032474804,	0.6249481543,	0.8011288805,	0.4857483958,	0.3496961491,	0.2463200153,	0.1892871005,	0.1701725505},
    {0.1660903073,	0.4914715542,	0.7122612913,	0.6656904220,	0.2003546099,	0.6298216508,	0.7984948260,	0.4841565935,	0.3490349192,	0.2463200153,	0.1897615043,	0.1718187915},
    {0.1519612686,	0.4836317407,	0.7174901485,	0.6774053585,	0.1904628593,	0.6296142679,	0.7863593603,	0.4749042431,	0.3441229258,	0.2412859237,	0.1828179583,	0.1621852326},
    {0.1495899615,	0.4827841932,	0.7187026372,	0.6791409047,	0.1885964912,	0.6299253422,	0.7732831609,	0.4676416455,	0.3388960610,	0.2369209202,	0.1778582827,	0.1554173526},
    {0.1599644304,	0.4924250450,	0.7176417096,	0.6686191561,	0.1941955954,	0.6339693073,	0.7746942615,	0.4697308859,	0.3400295979,	0.2392467979,	0.1810065985,	0.1612706542},
    {0.1693508547,	0.5000529717,	0.7158987572,	0.6595075388,	0.1996080627,	0.6365615927,	0.7804327375,	0.4740585982,	0.3435876444,	0.2428789906,	0.1874757407,	0.1698067191},
    {0.1660903073,	0.4941201398,	0.7140800242,	0.6642802907,	0.1992347891,	0.6324139361,	0.7677328316,	0.4716211511,	0.3426115432,	0.2414133690,	0.1866563160,	0.1695628315},
    {0.1514672463,	0.4743087191,	0.7112003637,	0.6825035253,	0.1941022770,	0.6206968063,	0.7538099718,	0.4628164951,	0.3366604742,	0.2349773784,	0.1785914521,	0.1588317786},
    {0.1479102855,	0.4628668291,	0.7057441649,	0.6903134830,	0.1957820082,	0.6113645790,	0.7454374412,	0.4579913446,	0.3329449920,	0.2309628497,	0.1731142451,	0.1521248704},
    {0.1629285644,	0.4709185295,	0.6999848439,	0.6779477167,	0.2064203061,	0.6113645790,	0.7470366886,	0.4630154703,	0.3353695016,	0.2343720130,	0.1768232199,	0.1576123407},
    {0.1760695583,	0.4774870219,	0.6945286450,	0.6673174965,	0.2160321015,	0.6108461219,	0.7565380997,	0.4684872905,	0.3402814950,	0.2388007392,	0.1826023203,	0.1652947991},
    {0.1767611896,	0.4676342833,	0.6870263716,	0.6719817768,	0.2208846585,	0.6008917462,	0.7574788335,	0.4701288365,	0.3401870336,	0.2382909578,	0.1827317031,	0.1662093775},
    {0.1655962850,	0.4475050323,	0.6812670506,	0.6884694652,	0.2192049272,	0.5871007881,	0.7440263405,	0.4622195692,	0.3348027331,	0.2337029249,	0.1762194333,	0.1581001158},
    {0.1595692125,	0.4365928594,	0.6780084874,	0.6973641393,	0.2183650616,	0.5795313148,	0.7402634055,	0.4569467244,	0.3305519695,	0.2291467533,	0.1701384396,	0.1507225169},
    {0.1679675921,	0.4435851255,	0.6765686572,	0.6891202950,	0.2232176185,	0.5820199088,	0.7501411101,	0.4611252052,	0.3332598633,	0.2312177404,	0.1730711174,	0.1554173526},
    {0.1754767315,	0.4529081470,	0.6774780236,	0.6803340926,	0.2262038074,	0.5871007881,	0.7668861712,	0.4705267870,	0.3394313423,	0.2369209202,	0.1807047052,	0.1651728553},
    {0.1736982512,	0.4567221104,	0.6816459533,	0.6793578479,	0.2227510265,	0.5918705931,	0.7735653810,	0.4744565488,	0.3435561573,	0.2400433314,	0.1840686592,	0.1677946467},
    {0.1604584527,	0.4462337112,	0.6842224917,	0.6919405575,	0.2150055991,	0.5884487764,	0.7618062088,	0.4685867781,	0.3404074436,	0.2373032562,	0.1793677492,	0.1612706542},
    {0.1534433356,	0.4428435216,	0.6871779327,	0.6975810825,	0.2097797686,	0.5888635421,	0.7599247413,	0.4660995871,	0.3384237539,	0.2357739119,	0.1769094751,	0.1571245656},
    {0.1602608438,	0.4604301303,	0.6944528645,	0.6847814297,	0.2085666293,	0.6024471174,	0.7707431797,	0.4715714073,	0.3423911332,	0.2395335500,	0.1815241299,	0.1615145418},
    {0.1674735698,	0.4805593813,	0.7033949682,	0.6704631739,	0.2064203061,	0.6184155952,	0.7858889934,	0.4797293936,	0.3480273308,	0.2451730071,	0.1878207616,	0.1703554661},
    {0.1612488884,	0.4825723064,	0.7096089724,	0.6729580215,	0.1997013811,	0.6236001659,	0.7878645343,	0.4806745262,	0.3488774835,	0.2459695406,	0.1878638892,	0.1697457472},
    {0.1492935481,	0.4755800403,	0.7137011216,	0.6830458835,	0.1915826801,	0.6230817088,	0.7797742239,	0.4769437397,	0.3455713341,	0.2422736252,	0.1821710441,	0.1616974575},
    {0.1461318052,	0.4695412650,	0.7118823886,	0.6878186354,	0.1912094065,	0.6188303608,	0.7784571966,	0.4746555241,	0.3441859001,	0.2395335500,	0.1789364730,	0.1562099872},
    {0.1553206205,	0.4798177773,	0.7121855108,	0.6775138301,	0.1953154162,	0.6241186230,	0.7909689558,	0.4811222206,	0.3481532794,	0.2426878226,	0.1839824039,	0.1626120359},
    {0.1662879162,	0.4999470283,	0.7181721734,	0.6612430849,	0.1968085106,	0.6380132725,	0.8011288805,	0.4903248271,	0.3539469127,	0.2489007838,	0.1922629059,	0.1733430888},
    {0.1676711787,	0.5028075008,	0.7191573204,	0.6590736522,	0.1968085106,	0.6400871008,	0.8013170273,	0.4892802069,	0.3540728612,	0.2493468425,	0.1932117135,	0.1743186391},
    {0.1550242071,	0.4860684395,	0.7169596848,	0.6744766244,	0.1922359089,	0.6303401078,	0.7937911571,	0.4837088992,	0.3490034321,	0.2442808896,	0.1870444646,	0.1660264618},
    {0.1481078945,	0.4720839072,	0.7121097302,	0.6854322595,	0.1919559537,	0.6202820406,	0.7822201317,	0.4760483510,	0.3443118486,	0.2401389154,	0.1820416613,	0.1615145418},
    {0.1563086652,	0.4790761733,	0.7108972416,	0.6774053585,	0.1966218738,	0.6227706346,	0.7756349953,	0.4746555241,	0.3444692843,	0.2413177850,	0.1842411696,	0.1653557710},
    {0.1625333465,	0.4977222163,	0.7195362231,	0.6644972340,	0.1941955954,	0.6378058897,	0.7744120414,	0.4734119286,	0.3454453856,	0.2444401963,	0.1878638892,	0.1697457472},
    {0.1457365873,	0.5089522195,	0.7403758715,	0.6678598546,	0.1734789100,	0.6576109498,	0.7695202258,	0.4627170074,	0.3434616959,	0.2459695406,	0.1859662742,	0.1635266142},
    {0.1147119850,	0.5281279797,	0.7778872386,	0.6751274542,	0.1356849571,	0.6926586479,	0.7550329257,	0.4424215291,	0.3382348311,	0.2446313643,	0.1804459395,	0.1488323883},
    {0.1058195830,	0.5284458099,	0.7849348287,	0.6799002061,	0.1271929825,	0.6976358358,	0.7642521167,	0.4475948863,	0.3492238421,	0.2583636016,	0.1892008453,	0.1487104445},
    {0.1609524751,	0.5427481725,	0.7529554410,	0.6422605489,	0.1729189996,	0.6827042721,	0.8190968956,	0.5115156942,	0.4076639693,	0.3225323393,	0.2519946522,	0.2052313883},
    {0.2735895662,	0.5513295900,	0.6726280691,	0.5760928517,	0.2754759239,	0.6319991705,	0.8774223895,	0.6162761777,	0.5133348027,	0.4410565220,	0.3722344417,	0.3202243766},
    {0.4082600534,	0.5289755271,	0.5534252804,	0.5136131902,	0.4125606570,	0.5395064289,	0.8699905927,	0.7158633040,	0.6385906357,	0.5899445613,	0.5198602665,	0.4635692946},
    {0.5665448078,	0.5210297701,	0.4262655350,	0.4307408613,	0.5656028369,	0.4485690585,	0.7896519285,	0.8054021788,	0.7724109701,	0.7484865864,	0.6733083193,	0.6177062374},
    {0.7334255508,	0.5594872338,	0.3257805396,	0.3194489641,	0.7062336693,	0.3986934882,	0.6842897460,	0.8712629956,	0.8740199628,	0.8732874530,	0.8050200543,	0.7648314127},
    {0.8918091098,	0.6344951796,	0.2579569567,	0.1940557544,	0.8227883539,	0.3889464952,	0.5511759172,	0.8826045864,	0.9059794074,	0.9186261390,	0.8869625221,	0.8900676788},
    {1.0000000000,	0.6543066003,	0.1890724462,	0.1246339082,	0.9162933931,	0.3516175861,	0.4070555033,	0.8481818634,	0.8939198337,	0.8978206844,	0.9028334843,	0.9567099567},
    {0.9312320917,	0.5575802521,	0.1727038497,	0.2118451025,	0.8938969765,	0.2930319370,	0.3268109125,	0.7083022434,	0.7674989767,	0.7602752820,	0.7817742701,	0.8654350344},
    {0.7142574844,	0.4251509694,	0.2444680206,	0.3987417290,	0.7472937663,	0.2772708420,	0.2060206961,	0.4094911207,	0.4685286061,	0.4870642962,	0.5299521283,	0.6351441985},
    {0.4523268452,	0.4112723805,	0.4353591998,	0.5496257729,	0.5060656962,	0.4010783907,	0.1174976482,	0.1295826494,	0.1659372146,	0.1909131460,	0.2372881356,	0.3458935431},
    {0.3139017884,	0.4470812586,	0.5671415580,	0.6073326825,	0.3594624860,	0.5088137702,	0.1133584196,	0.0430284037,	0.0490569602,	0.0537500797,	0.0830637857,	0.1780988964},
    {0.2995751408,	0.4650916411,	0.5910124280,	0.6059225513,	0.3379992535,	0.5340107839,	0.2289746002,	0.1481370940,	0.1199345068,	0.0979098961,	0.1021693190,	0.1724894823},
    {0.2733919573,	0.4931666490,	0.6311761140,	0.6059225513,	0.3009518477,	0.5751762754,	0.4111006585,	0.2959757250,	0.2247866746,	0.1735168546,	0.1556475611,	0.1964514359},
    {0.2225076573,	0.4852208920,	0.6645195514,	0.6379216835,	0.2563456514,	0.5941518042,	0.5587017874,	0.3936228424,	0.2905633049,	0.2120690754,	0.1720791823,	0.1830985915},
    {0.1973125185,	0.4666807925,	0.6705062140,	0.6612430849,	0.2407614782,	0.5891746163,	0.6538099718,	0.4475451425,	0.3246009005,	0.2290193080,	0.1769094751,	0.1713919883},
    {0.1956328426,	0.4644559805,	0.6702788724,	0.6633040460,	0.2401082493,	0.5878266280,	0.7150517404,	0.4752027061,	0.3425170818,	0.2379723444,	0.1830767240,	0.1739528078},
    {0.1902974014,	0.4651975845,	0.6749772658,	0.6657988936,	0.2347891004,	0.5914558275,	0.7528692380,	0.4867432721,	0.3492868163,	0.2407442809,	0.1848018286,	0.1747454424},
    {0.1730066199,	0.4510011654,	0.6780084874,	0.6826119970,	0.2247107130,	0.5865823310,	0.7747883349,	0.4881360991,	0.3485311250,	0.2370483655,	0.1777720274,	0.1659654899},
    {0.1466258275,	0.4296005933,	0.6829342225,	0.7079943595,	0.2092198582,	0.5795313148,	0.7823142051,	0.4829129981,	0.3425485689,	0.2283820812,	0.1656531677,	0.1495640510},
    {0.1348680960,	0.4222904969,	0.6866474689,	0.7182991648,	0.2013811124,	0.5783907092,	0.7876763876,	0.4809232453,	0.3391794452,	0.2229019308,	0.1586664942,	0.1373087007},
    {0.1410927774,	0.4292827630,	0.6869505911,	0.7112485085,	0.2040873460,	0.5821236002,	0.8023518344,	0.4876386609,	0.3416984162,	0.2238259096,	0.1598740674,	0.1378574477},
    {0.1446497382,	0.4330967263,	0.6869505911,	0.7073435297,	0.2058603957,	0.5839900456,	0.8172154280,	0.4950007462,	0.3466733839,	0.2268208755,	0.1635830422,	0.1429790866},
    {0.1382274479,	0.4229261574,	0.6846013944,	0.7161297321,	0.2041806644,	0.5773537951,	0.8197554092,	0.4954484405,	0.3464214868,	0.2259606194,	0.1606934920,	0.1404792391},
    {0.1228139512,	0.4042801144,	0.6831615641,	0.7341360234,	0.1978350131,	0.5672957279,	0.8124176858,	0.4892304631,	0.3405963664,	0.2197795195,	0.1519817139,	0.1288945796},
    {0.1224187333,	0.3963343575,	0.6776295847,	0.7383664172,	0.2010078387,	0.5596225633,	0.8087488241,	0.4863950654,	0.3376995497,	0.2157649908,	0.1472376763,	0.1220657277},
    {0.1341764648,	0.4036444539,	0.6739163383,	0.7281700835,	0.2089399029,	0.5605557860,	0.8167450611,	0.4926130428,	0.3420132876,	0.2189511247,	0.1513779273,	0.1286506920},
    {0.1432664756,	0.4093653989,	0.6710366778,	0.7202516542,	0.2149122807,	0.5614890087,	0.8244590781,	0.4997264090,	0.3464844611,	0.2224558720,	0.1559063268,	0.1362112066},
    {0.1363501630,	0.3970759614,	0.6675507730,	0.7303395162,	0.2137924599,	0.5530900041,	0.8193791157,	0.4978361439,	0.3447211814,	0.2207990824,	0.1539655842,	0.1337723310},
    {0.1256792807,	0.3752516156,	0.6601242801,	0.7473695629,	0.2133258679,	0.5373289092,	0.8031984948,	0.4892304631,	0.3389590352,	0.2153507933,	0.1470651658,	0.1268215353},
    {0.1252840628,	0.3634918953,	0.6519399818,	0.7535524460,	0.2181784248,	0.5259228536,	0.7955785513,	0.4856489081,	0.3358418086,	0.2119734914,	0.1422348730,	0.1224925309},
    {0.1319039621,	0.3696366140,	0.6513337375,	0.7468272047,	0.2217245241,	0.5285151389,	0.8070555033,	0.4888325126,	0.3371327813,	0.2122921048,	0.1433993186,	0.1234071093},
    {0.1405987551,	0.3805487869,	0.6523946651,	0.7365223994,	0.2251773050,	0.5346329324,	0.8191909690,	0.4949510023,	0.3407538021,	0.2156056841,	0.1477120800,	0.1298701299},
    {0.1337812469,	0.3697425575,	0.6499696878,	0.7457424883,	0.2234975737,	0.5275819162,	0.8183443086,	0.4913694473,	0.3387071381,	0.2130249156,	0.1440893604,	0.1256630693},
    {0.1210354708,	0.3544867041,	0.6489087602,	0.7604946307,	0.2180851064,	0.5193902945,	0.8066792098,	0.4827637666,	0.3320633521,	0.2065889250,	0.1349031785,	0.1147491007},
    {0.1185653592,	0.3551223647,	0.6511821764,	0.7615793470,	0.2154721911,	0.5213604314,	0.8116650988,	0.4831119733,	0.3309927894,	0.2043586312,	0.1317117350,	0.1100542650},
    {0.1255804762,	0.3692128403,	0.6559563504,	0.7505152403,	0.2158454647,	0.5315221900,	0.8313264346,	0.4933592001,	0.3376995497,	0.2090103868,	0.1373614525,	0.1159685385},
    {0.1360537496,	0.3767348236,	0.6532282510,	0.7409697364,	0.2225643897,	0.5332849440,	0.8521166510,	0.5064915684,	0.3443433357,	0.2148091506,	0.1435718290,	0.1243216877},
    {0.1297302638,	0.3721792563,	0.6548954229,	0.7467187331,	0.2185516984,	0.5321443384,	0.8527751646,	0.5075859324,	0.3453509241,	0.2151596253,	0.1432268081,	0.1238339126},
    {0.1172809011,	0.3554401949,	0.6523946651,	0.7621217052,	0.2141657335,	0.5222936541,	0.8427093133,	0.4997761528,	0.3401240593,	0.2097431976,	0.1364557726,	0.1146881288},
    {0.1180713368,	0.3579828372,	0.6535313731,	0.7603861590,	0.2137924599,	0.5243674824,	0.8439322672,	0.4979356315,	0.3384867282,	0.2076084879,	0.1344719024,	0.1124931407},
    {0.1275565656,	0.3811844475,	0.6630039406,	0.7433561124,	0.2124860022,	0.5420987142,	0.8560677328,	0.5075361886,	0.3447841557,	0.2128337475,	0.1414585759,	0.1214560088},
    {0.1352633139,	0.4013136985,	0.6714155805,	0.7288209133,	0.2108995894,	0.5577561178,	0.8754468485,	0.5196736805,	0.3524670172,	0.2197476582,	0.1496959503,	0.1304798488},
    {0.1258768896,	0.3998304905,	0.6774780236,	0.7346783816,	0.2027808884,	0.5611779345,	0.8797742239,	0.5216634333,	0.3536950156,	0.2199388262,	0.1499978436,	0.1301749893},
    {0.1113526331,	0.3845746371,	0.6777811458,	0.7505152403,	0.1956886898,	0.5539195355,	0.8714957667,	0.5165398199,	0.3490664064,	0.2145223985,	0.1428817872,	0.1210901774},
    {0.1088825215,	0.3847865240,	0.6798272204,	0.7517084282,	0.1933557297,	0.5554749067,	0.8687676388,	0.5149977615,	0.3467048711,	0.2109857898,	0.1378789839,	0.1157246509},
    {0.1170832922,	0.3905074690,	0.6776295847,	0.7443323571,	0.1985815603,	0.5567192036,	0.8800564440,	0.5224593344,	0.3500425076,	0.2119416300,	0.1394747057,	0.1193219926},
    {0.1271613477,	0.3934738849,	0.6720218248,	0.7371732292,	0.2067002613,	0.5543343011,	0.8927563500,	0.5316619410,	0.3539469127,	0.2150959026,	0.1431405529,	0.1250533504},
    {0.1232091691,	0.3862697320,	0.6698999697,	0.7431391691,	0.2062336693,	0.5493571132,	0.8890874882,	0.5318111725,	0.3523725558,	0.2125151341,	0.1397334713,	0.1210292055},
    {0.1141191582,	0.3699544443,	0.6651257957,	0.7564811802,	0.2048338932,	0.5381584405,	0.8771401693,	0.5268865343,	0.3464214868,	0.2053463328,	0.1313667141,	0.1112127309},
    {0.1106610019,	0.3623265176,	0.6624734768,	0.7622301768,	0.2048338932,	0.5325591041,	0.8725305738,	0.5253444759,	0.3428319531,	0.2001529344,	0.1247681891,	0.1056642888},
    {0.1229127557,	0.3696366140,	0.6582297666,	0.7517084282,	0.2132325495,	0.5331812526,	0.8841956726,	0.5353927275,	0.3464529740,	0.2014911107,	0.1279596326,	0.1107249558},
    {0.1322003755,	0.3696366140,	0.6511063959,	0.7466102614,	0.2220044793,	0.5284114475,	0.9008466604,	0.5461373924,	0.3508296861,	0.2040400178,	0.1324017769,	0.1176757515},
    {0.1329908112,	0.3538510435,	0.6392846317,	0.7543117475,	0.2296565883,	0.5125466611,	0.9031984948,	0.5505645923,	0.3498535848,	0.2022876442,	0.1300728857,	0.1167611731},
    {0.1221223199,	0.3330861320,	0.6327675053,	0.7709079076,	0.2285367675,	0.4979261717,	0.8988711195,	0.5497686912,	0.3462640511,	0.1970942458,	0.1233449778,	0.1092616304},
    {0.1253828673,	0.3287424515,	0.6270081843,	0.7713417941,	0.2335759612,	0.4919120697,	0.9019755409,	0.5520569069,	0.3455713341,	0.1941311413,	0.1200241515,	0.1084080239},
    {0.1369429898,	0.3382773599,	0.6250378903,	0.7601692158,	0.2402948862,	0.4951265035,	0.9133584196,	0.5599164304,	0.3496961491,	0.1968712165,	0.1247681891,	0.1169440888},
    {0.1449461516,	0.3457993432,	0.6243558654,	0.7519253715,	0.2444942143,	0.4983409374,	0.9245531515,	0.5702631448,	0.3537579899,	0.2001847958,	0.1297278648,	0.1254801536},
    {0.1393142970,	0.3314969806,	0.6183692028,	0.7622301768,	0.2455207167,	0.4873496474,	0.9229539040,	0.5703128886,	0.3530337857,	0.1985917288,	0.1280027602,	0.1235900250},
    {0.1308171129,	0.3078715966,	0.6079114883,	0.7790432802,	0.2479469951,	0.4685815015,	0.9136406397,	0.5680744168,	0.3507667118,	0.1936532212,	0.1224824255,	0.1156027072},
    {0.1347692916,	0.2883780061,	0.5910124280,	0.7868532379,	0.2601717059,	0.4475321443,	0.9161806209,	0.5732477740,	0.3514909160,	0.1920282929,	0.1195928753,	0.1130418877},
    {0.1525540954,	0.2899671575,	0.5785086390,	0.7763314893,	0.2763157895,	0.4396515968,	0.9285983067,	0.5814057603,	0.3557416795,	0.1949595361,	0.1226980636,	0.1201755990},
    {0.1692520502,	0.3058586715,	0.5771445893,	0.7589760278,	0.2850877193,	0.4464952302,	0.9337723424,	0.5887678456,	0.3623224913,	0.2013318040,	0.1310648208,	0.1323090055},
    {0.1751803182,	0.3079775400,	0.5740375871,	0.7546371624,	0.2897536394,	0.4454583161,	0.9240827846,	0.5896632343,	0.3663528449,	0.2057605302,	0.1369301764,	0.1382232791},
    {0.1727102065,	0.3024684818,	0.5719915126,	0.7588675561,	0.2898469578,	0.4414143509,	0.8963311383,	0.5804606278,	0.3649044365,	0.2060472822,	0.1363695174,	0.1334064996},
    {0.1800217370,	0.3176183918,	0.5771445893,	0.7470441480,	0.2901269130,	0.4523019494,	0.8816556914,	0.5770780481,	0.3679272017,	0.2117186006,	0.1440031052,	0.1412718737},
    {0.1981029543,	0.3460112300,	0.5836617157,	0.7225295585,	0.2946995147,	0.4706553297,	0.8857949200,	0.5818534547,	0.3767750874,	0.2258968967,	0.1627636175,	0.1632827267},
    {0.2144056911,	0.3703782180,	0.5885874507,	0.7011606465,	0.2992721165,	0.4860016591,	0.8790216369,	0.5820524300,	0.3841430776,	0.2399796087,	0.1802303015,	0.1821840132},
    {0.2095642723,	0.3757813328,	0.5961655047,	0.7010521749,	0.2923665547,	0.4937785151,	0.8652869238,	0.5730487987,	0.3845524103,	0.2459376792,	0.1891577177,	0.1885860618},
    {0.1968184962,	0.3753575591,	0.6055622916,	0.7082113027,	0.2806084360,	0.5000000000,	0.8463781750,	0.5612595135,	0.3821593879,	0.2491238132,	0.1919610126,	0.1873666240},
    {0.1915818595,	0.3929441678,	0.6222340103,	0.7021368912,	0.2678238149,	0.5200124430,	0.8386641580,	0.5533005024,	0.3825687207,	0.2548269929,	0.1982576444,	0.1913907689},
    {0.1981029543,	0.4237737048,	0.6392846317,	0.6828289402,	0.2604516611,	0.5467648279,	0.8483537159,	0.5553399990,	0.3875122013,	0.2641623654,	0.2080044853,	0.2017559905},
    {0.2042288311,	0.4431613518,	0.6484540770,	0.6694869292,	0.2576521090,	0.5625259229,	0.8506114770,	0.5547928170,	0.3905034793,	0.2700248518,	0.2160262216,	0.2086458143},
    {0.1909890327,	0.4416781439,	0.6575477417,	0.6775138301,	0.2458006719,	0.5680215678,	0.8448730009,	0.5455902104,	0.3873862527,	0.2690690117,	0.2151636693,	0.2029754283},
    {0.1787372789,	0.4360631423,	0.6629281600,	0.6870593340,	0.2367487869,	0.5689547905,	0.8276575729,	0.5348952893,	0.3814351837,	0.2650863442,	0.2092551861,	0.1943783916},
    {0.1774528209,	0.4299184236,	0.6595938163,	0.6909643128,	0.2381485629,	0.5636665284,	0.8146754468,	0.5276824355,	0.3780030857,	0.2635888613,	0.2066244016,	0.1901713310},
    {0.1900997925,	0.4353215383,	0.6536071537,	0.6813103373,	0.2478536767,	0.5622148486,	0.8133584196,	0.5297716759,	0.3802071854,	0.2675396674,	0.2117997154,	0.1968172672},
    {0.1978065409,	0.4370166331,	0.6490603213,	0.6761036989,	0.2542926465,	0.5599336375,	0.8083725306,	0.5288762871,	0.3807739538,	0.2696425158,	0.2153361798,	0.2019998781},
    {0.1861476139,	0.4271638945,	0.6508790543,	0.6876016922,	0.2475737215,	0.5563044380,	0.7970837253,	0.5221111277,	0.3764287289,	0.2667112725,	0.2121878639,	0.1968782391},
    {0.1775516253,	0.4139209662,	0.6479993938,	0.6990996854,	0.2453340799,	0.5479054334,	0.7730009407,	0.5098741481,	0.3695960200,	0.2607213407,	0.2042955104,	0.1880982867},
    {0.1800217370,	0.4191121941,	0.6498181267,	0.6950862349,	0.2453340799,	0.5517420158,	0.7638758231,	0.5079838830,	0.3692181744,	0.2602752820,	0.2032604477,	0.1863910737},
    {0.1912854461,	0.4370166331,	0.6539860564,	0.6796832628,	0.2481336320,	0.5633554542,	0.7786453434,	0.5148485301,	0.3729021695,	0.2645128401,	0.2085220166,	0.1937077007},
    {0.1982017587,	0.4489882403,	0.6572446196,	0.6698123441,	0.2493467712,	0.5713396931,	0.7914393227,	0.5190767547,	0.3757674990,	0.2669980246,	0.2118428430,	0.1988293397},
    {0.1883213121,	0.4372285200,	0.6563352531,	0.6813103373,	0.2453340799,	0.5650145168,	0.7844778928,	0.5168382828,	0.3736263736,	0.2650863442,	0.2092983137,	0.1946222791},
    {0.1774528209,	0.4236677614,	0.6550469839,	0.6941099902,	0.2409481150,	0.5575487350,	0.7701787394,	0.5096751729,	0.3689977644,	0.2609125088,	0.2040798723,	0.1879763429},
    {0.1812073906,	0.4305540841,	0.6571688390,	0.6885779369,	0.2414147070,	0.5623185400,	0.7694261524,	0.5066905437,	0.3678012532,	0.2595743325,	0.2024410230,	0.1871227364},
    {0.1936567533,	0.4492001271,	0.6609578660,	0.6721987200,	0.2449608063,	0.5740356698,	0.7831608655,	0.5146992986,	0.3728706823,	0.2646084241,	0.2081769957,	0.1942564478},
    {0.1993874123,	0.4566161670,	0.6617914520,	0.6652565354,	0.2472004479,	0.5782870178,	0.7975540922,	0.5224095906,	0.3766806260,	0.2685273689,	0.2127916505,	0.1996219743},
    {0.1879260943,	0.4399830491,	0.6586844498,	0.6801171494,	0.2436543486,	0.5679178764,	0.7979303857,	0.5220613839,	0.3750747820,	0.2656279870,	0.2089101652,	0.1948661667},
    {0.1760695583,	0.4218667232,	0.6548196423,	0.6958455364,	0.2403882046,	0.5565118208,	0.7906867357,	0.5132567279,	0.3691866872,	0.2592557191,	0.1998964937,	0.1835253948},
    {0.1719197708,	0.4210191758,	0.6573961807,	0.6985573273,	0.2368421053,	0.5578598092,	0.7874882408,	0.5083320897,	0.3669825876,	0.2577263748,	0.1973950921,	0.1798061094},
    {0.1830846754,	0.4347918212,	0.6586844498,	0.6853237878,	0.2414147070,	0.5654292825,	0.7963311383,	0.5140028851,	0.3702257628,	0.2623144077,	0.2051149351,	0.1875495397},
    {0.1964232783,	0.4422078610,	0.6537587148,	0.6742596811,	0.2506532288,	0.5657403567,	0.8068673565,	0.5200716311,	0.3752637048,	0.2674440833,	0.2127916505,	0.1980367051},
    {0.1921746863,	0.4308719144,	0.6489087602,	0.6823950537,	0.2516797312,	0.5568228951,	0.8002822201,	0.5176341840,	0.3743820649,	0.2662333525,	0.2108509078,	0.1951710262},
    {0.1785396700,	0.4154041742,	0.6482267354,	0.6977980258,	0.2457073535,	0.5487349647,	0.7893697084,	0.5091777347,	0.3689033030,	0.2608169247,	0.2037348514,	0.1857813548},
    {0.1778480387,	0.4152982307,	0.6486814186,	0.6982319124,	0.2450541247,	0.5490460390,	0.7922859831,	0.5092772223,	0.3688403287,	0.2611673995,	0.2035623410,	0.1873666240},
    {0.1843691335,	0.4281173853,	0.6529251288,	0.6880355787,	0.2455207167,	0.5582745749,	0.8115710254,	0.5151469930,	0.3728391952,	0.2655642643,	0.2094276966,	0.1946222791},
    {0.1842703290,	0.4430554084,	0.6636859654,	0.6804425643,	0.2388951101,	0.5728950643,	0.8299153340,	0.5243993434,	0.3782234957,	0.2708532467,	0.2167162634,	0.2011462716},
    {0.1761683628,	0.4401949359,	0.6678538951,	0.6864085042,	0.2324561404,	0.5743467441,	0.8286923801,	0.5222106153,	0.3773418559,	0.2703116039,	0.2160693492,	0.1996219743},
    {0.1584823634,	0.4266341773,	0.6717187026,	0.7031131359,	0.2217245241,	0.5704064703,	0.8172154280,	0.5122121076,	0.3708869927,	0.2644809788,	0.2074869539,	0.1894396683},
    {0.1500839838,	0.4277995550,	0.6789936344,	0.7070181148,	0.2132325495,	0.5759021153,	0.8191909690,	0.5102720987,	0.3693441229,	0.2627604665,	0.2039936171,	0.1857813548},
    {0.1649046537,	0.4472931455,	0.6814943922,	0.6890118234,	0.2187383352,	0.5871007881,	0.8284101599,	0.5151967368,	0.3716111968,	0.2651819282,	0.2074869539,	0.1917566002},
    {0.1748839048,	0.4573577710,	0.6811154895,	0.6782731316,	0.2236842105,	0.5918705931,	0.8289746002,	0.5159428941,	0.3722094524,	0.2664882432,	0.2101177384,	0.1970611548},
    {0.1718209663,	0.4485644666,	0.6770991209,	0.6845644864,	0.2247107130,	0.5847158855,	0.8097836312,	0.5090782470,	0.3692811487,	0.2637800293,	0.2074869539,	0.1949271386},
    {0.1643118269,	0.4275876682,	0.6679296757,	0.6994251003,	0.2268570362,	0.5682289506,	0.7813734713,	0.4970402427,	0.3628892597,	0.2577582362,	0.2013197050,	0.1868178770},
    {0.1679675921,	0.4254687997,	0.6636101849,	0.6984488556,	0.2312430011,	0.5641849855,	0.7701787394,	0.4953489529,	0.3613149029,	0.2567068120,	0.2002846423,	0.1852935797},
    {0.1801205414,	0.4365928594,	0.6623219157,	0.6860830893,	0.2377752893,	0.5688510991,	0.7726246472,	0.5009700045,	0.3645265909,	0.2605620340,	0.2061068702,	0.1915736845},
    {0.1870368541,	0.4462337112,	0.6637617460,	0.6774053585,	0.2401082493,	0.5744504355,	0.7792097836,	0.5058448988,	0.3671400233,	0.2640030587,	0.2111528011,	0.1985244802},
    {0.1784408655,	0.4376522937,	0.6642922098,	0.6864085042,	0.2357222844,	0.5706138532,	0.7757290687,	0.5024125752,	0.3652193079,	0.2613267062,	0.2081338681,	0.1956588013},
    {0.1652998716,	0.4236677614,	0.6643679903,	0.7008352316,	0.2294699515,	0.5638739112,	0.7601128881,	0.4944535641,	0.3604647501,	0.2569617027,	0.2011040669,	0.1863910737},
    {0.1673747653,	0.4252569128,	0.6639133071,	0.6988827422,	0.2307764091,	0.5642886769,	0.7559736595,	0.4934586878,	0.3596775717,	0.2564837826,	0.2003277699,	0.1855374672},
    {0.1794289102,	0.4394533319,	0.6648226735,	0.6849983729,	0.2359089212,	0.5719618416,	0.7675446849,	0.5003233348,	0.3642432067,	0.2608806474,	0.2064518911,	0.1938296445},
    {0.1849619603,	0.4467634283,	0.6658078206,	0.6782731316,	0.2378686077,	0.5761094981,	0.7764816557,	0.5050987415,	0.3674234075,	0.2643216721,	0.2109371631,	0.1997439181},
    {0.1802193459,	0.4388176714,	0.6637617460,	0.6848899013,	0.2369354237,	0.5708212360,	0.7735653810,	0.5022633438,	0.3649988980,	0.2617727649,	0.2084357614,	0.1962685202},
    {0.1730066199,	0.4277995550,	0.6614125493,	0.6945438768,	0.2349757372,	0.5638739112,	0.7663217310,	0.4966422922,	0.3602758273,	0.2562926145,	0.2017078535,	0.1874275959},
    {0.1732042288,	0.4299184236,	0.6627765990,	0.6933506888,	0.2342291900,	0.5658440481,	0.7694261524,	0.4953986967,	0.3595516232,	0.2548269929,	0.2004140251,	0.1846838607},
    {0.1854559826,	0.4421019176,	0.6620945741,	0.6803340926,	0.2403882046,	0.5713396931,	0.7805268109,	0.5004725663,	0.3620705942,	0.2579812655,	0.2038211067,	0.1914517407},
    {0.1929651220,	0.4515308825,	0.6630797211,	0.6714394186,	0.2432810750,	0.5766279552,	0.7853245532,	0.5048997662,	0.3637394125,	0.2597655005,	0.2066675292,	0.1948051948},
    {0.1859500049,	0.4477169192,	0.6656562595,	0.6771884152,	0.2384285181,	0.5765242638,	0.7800564440,	0.4989802517,	0.3600869045,	0.2569298413,	0.2035623410,	0.1906591062},
    {0.1767611896,	0.4368047463,	0.6649742346,	0.6878186354,	0.2345091452,	0.5707175446,	0.7690498589,	0.4915186788,	0.3559620895,	0.2525966992,	0.1977401130,	0.1829766478},
    {0.1826894576,	0.4332026698,	0.6579266444,	0.6864085042,	0.2416013438,	0.5640812941,	0.7701787394,	0.4913694473,	0.3559306023,	0.2524373925,	0.1976538578,	0.1832815072},
    {0.1973125185,	0.4325670092,	0.6461806608,	0.6787070181,	0.2557857409,	0.5557859809,	0.7831608655,	0.4978361439,	0.3599294688,	0.2550181610,	0.2019234916,	0.1919395159},
    {0.2041300267,	0.4299184236,	0.6391330706,	0.6763206422,	0.2633445315,	0.5496681875,	0.7863593603,	0.5003730786,	0.3602128530,	0.2556235264,	0.2040798723,	0.1968782391},
    {0.1902974014,	0.4194300244,	0.6421642922,	0.6892287667,	0.2549458753,	0.5465574450,	0.7747883349,	0.4917176541,	0.3556787052,	0.2519594724,	0.2004140251,	0.1918175721},
    {0.1745874914,	0.3998304905,	0.6401939982,	0.7078858878,	0.2486935424,	0.5356698465,	0.7628410160,	0.4793811869,	0.3462010769,	0.2438985535,	0.1896752491,	0.1785866715},
    {0.1679675921,	0.3913550164,	0.6392088512,	0.7159127888,	0.2462672639,	0.5307963501,	0.7623706491,	0.4754514252,	0.3420447747,	0.2394698273,	0.1832923621,	0.1701725505},
    {0.1673747653,	0.3958046403,	0.6428463171,	0.7139602994,	0.2436543486,	0.5355661551,	0.7752587018,	0.4791324678,	0.3426430303,	0.2395335500,	0.1837667659,	0.1713310164},
    {0.1612488884,	0.4048098315,	0.6539860564,	0.7126586398,	0.2339492348,	0.5475943592,	0.7896519285,	0.4832114610,	0.3445322586,	0.2408717262,	0.1851899771,	0.1729162856},
    {0.1461318052,	0.3978175654,	0.6605789633,	0.7245905196,	0.2227510265,	0.5486312733,	0.7851364064,	0.4780878476,	0.3407852892,	0.2373988402,	0.1795833872,	0.1656606304},
    {0.1338800514,	0.3856340714,	0.6612609882,	0.7376071157,	0.2165920119,	0.5431356284,	0.7783631232,	0.4701785803,	0.3358418086,	0.2323328873,	0.1729848622,	0.1557831840},
    {0.1297302638,	0.3848924674,	0.6639133071,	0.7402104350,	0.2129525943,	0.5445873082,	0.7936970837,	0.4743570611,	0.3380773954,	0.2346269037,	0.1748393496,	0.1571245656},
    {0.1386226657,	0.3980294523,	0.6664898454,	0.7286039701,	0.2155655095,	0.5527789299,	0.8162746943,	0.4857483958,	0.3459806669,	0.2421143185,	0.1847155734,	0.1686482532},
    {0.1437604980,	0.4086237949,	0.6702030918,	0.7203601258,	0.2157521463,	0.5604520946,	0.8231420508,	0.4924638114,	0.3507352247,	0.2464155993,	0.1922629059,	0.1765745991},
    {0.1413891908,	0.4054454921,	0.6696726281,	0.7232888600,	0.2149122807,	0.5585856491,	0.8017873942,	0.4829627419,	0.3457287698,	0.2431657427,	0.1897183767,	0.1732211451},
    {0.1397095149,	0.4086237949,	0.6732343134,	0.7225295585,	0.2119260918,	0.5625259229,	0.7617121355,	0.4669452321,	0.3391479581,	0.2377493150,	0.1830335964,	0.1663922932},
    {0.1429700622,	0.4215488929,	0.6799787814,	0.7141772427,	0.2093131766,	0.5735172128,	0.7460959548,	0.4626175198,	0.3363141157,	0.2355827439,	0.1809203433,	0.1638314737},
    {0.1557158384,	0.4344739909,	0.6794483177,	0.7006182883,	0.2156588279,	0.5794276234,	0.7542803387,	0.4702283241,	0.3404389307,	0.2396609953,	0.1854487428,	0.1718797634},
    {0.1633237822,	0.4347918212,	0.6739163383,	0.6962794229,	0.2226577081,	0.5757984239,	0.7640639699,	0.4758493757,	0.3436506187,	0.2429427133,	0.1885970587,	0.1774282056},
    {0.1530481178,	0.4214429495,	0.6721733859,	0.7086451893,	0.2189249720,	0.5681252592,	0.7580432738,	0.4707257623,	0.3407223149,	0.2399796087,	0.1839392763,	0.1729772575},
    {0.1391166881,	0.4098951160,	0.6745225826,	0.7222041436,	0.2108995894,	0.5640812941,	0.7492944497,	0.4638113714,	0.3357788343,	0.2351366851,	0.1771682408,	0.1626730077},
    {0.1456377828,	0.4184765335,	0.6757350712,	0.7142857143,	0.2131392311,	0.5690584820,	0.7515522107,	0.4653534298,	0.3379199597,	0.2371439495,	0.1802303015,	0.1645021645},
    {0.1597668215,	0.4355334252,	0.6770991209,	0.6977980258,	0.2190182904,	0.5783907092,	0.7639698965,	0.4745062926,	0.3427689789,	0.2428471293,	0.1873463579,	0.1734040607},
    {0.1651022626,	0.4403008793,	0.6764170961,	0.6923744441,	0.2220044793,	0.5802571547,	0.7746001881,	0.4800776004,	0.3460121540,	0.2454278978,	0.1905378014,	0.1765745991},
    {0.1580871455,	0.4335205001,	0.6769475599,	0.6997505152,	0.2182717432,	0.5773537951,	0.7666980245,	0.4758991195,	0.3431153374,	0.2420824571,	0.1865269332,	0.1716968478},
    {0.1508744195,	0.4254687997,	0.6767202182,	0.7078858878,	0.2150989175,	0.5732061385,	0.7536218250,	0.4688354972,	0.3383922668,	0.2376218696,	0.1812222366,	0.1649899396},
    {0.1614464974,	0.4308719144,	0.6724007275,	0.6992081571,	0.2227510265,	0.5728950643,	0.7513640640,	0.4692334477,	0.3400925722,	0.2394379660,	0.1841117868,	0.1698676910},
    {0.1788360834,	0.4479288060,	0.6713397999,	0.6809849224,	0.2315229563,	0.5804645375,	0.7678269050,	0.4781375914,	0.3463899997,	0.2463200153,	0.1930823306,	0.1813913786},
    {0.1826894576,	0.4490941837,	0.6692179448,	0.6782731316,	0.2346957820,	0.5796350062,	0.7777986830,	0.4853007014,	0.3498220977,	0.2502708214,	0.1977401130,	0.1861471861},
    {0.1737970556,	0.4277995550,	0.6608063049,	0.6940015186,	0.2357222844,	0.5634591456,	0.7690498589,	0.4802268318,	0.3467048711,	0.2470846874,	0.1932548411,	0.1793183342},
    {0.1638178046,	0.4083059646,	0.6545165202,	0.7095129624,	0.2348824188,	0.5495644961,	0.7543744120,	0.4718698702,	0.3414780062,	0.2416045371,	0.1869582093,	0.1717578196},
    {0.1635213912,	0.4035385104,	0.6513337375,	0.7121162816,	0.2366554685,	0.5451057652,	0.7557855127,	0.4705267870,	0.3404704178,	0.2401389154,	0.1851037219,	0.1707212975},
    {0.1717221618,	0.4084119080,	0.6485298575,	0.7051740970,	0.2422545726,	0.5455205309,	0.7653809972,	0.4756504004,	0.3439654901,	0.2432294654,	0.1900633976,	0.1777940369},
    {0.1770576030,	0.4136031359,	0.6481509548,	0.6995335720,	0.2449608063,	0.5479054334,	0.7726246472,	0.4804755509,	0.3460121540,	0.2461288473,	0.1938155001,	0.1832815072},
    {0.1662879162,	0.4037503973,	0.6493634435,	0.7104892071,	0.2391750653,	0.5438614683,	0.7635936030,	0.4736109038,	0.3408167763,	0.2404575288,	0.1867425713,	0.1741357234},
    {0.1531469222,	0.3906134124,	0.6500454683,	0.7244820479,	0.2325494588,	0.5379510577,	0.7542803387,	0.4658011242,	0.3367234485,	0.2353915759,	0.1800577910,	0.1656606304},
    {0.1520600731,	0.3869053925,	0.6482267354,	0.7269768955,	0.2331093692,	0.5348403152,	0.7581373471,	0.4693329354,	0.3370698070,	0.2353278532,	0.1792814939,	0.1643192488},
    {0.1604584527,	0.3864816188,	0.6414064868,	0.7225295585,	0.2413213886,	0.5299668187,	0.7719661336,	0.4773416903,	0.3416039548,	0.2398521634,	0.1848449562,	0.1716968478},
    {0.1616441063,	0.3782180316,	0.6345862383,	0.7261091225,	0.2460806271,	0.5212567399,	0.7903104421,	0.4849027508,	0.3462325640,	0.2442171669,	0.1898046319,	0.1767575148},
    {0.1568026875,	0.3709079352,	0.6331464080,	0.7325089489,	0.2446808511,	0.5166943177,	0.7914393227,	0.4868427598,	0.3472086653,	0.2447269483,	0.1888558244,	0.1746844705},
    {0.1508744195,	0.3738743511,	0.6398150955,	0.7342444951,	0.2377752893,	0.5227084197,	0.7809971778,	0.4825647913,	0.3455713341,	0.2430382973,	0.1863544227,	0.1705993537},
    {0.1580871455,	0.4031147367,	0.6551985450,	0.7153704306,	0.2317095931,	0.5475943592,	0.7797742239,	0.4864945531,	0.3494127649,	0.2472121328,	0.1916591193,	0.1768794586},
    {0.1712281395,	0.4330967263,	0.6666414065,	0.6928083306,	0.2308697275,	0.5699917047,	0.7949200376,	0.4951002338,	0.3566548065,	0.2538074301,	0.2004140251,	0.1879153710},
    {0.1775516253,	0.4404068228,	0.6669445286,	0.6855407311,	0.2336692796,	0.5738282870,	0.7996237065,	0.4983335821,	0.3586384962,	0.2558784171,	0.2033467029,	0.1916346564},
    {0.1670783519,	0.4324610658,	0.6692937254,	0.6953031782,	0.2272303098,	0.5715470759,	0.7895578551,	0.4917176541,	0.3553953210,	0.2524373925,	0.1984301548,	0.1859032986},
    {0.1471198498,	0.4307659710,	0.6834646863,	0.7072350580,	0.2091265398,	0.5803608461,	0.7702728128,	0.4795801622,	0.3478384080,	0.2463837380,	0.1907534394,	0.1751722456},
    {0.1471198498,	0.4566161670,	0.7018793574,	0.6938930470,	0.1978350131,	0.6056615512,	0.7654750706,	0.4726657713,	0.3456343084,	0.2465111833,	0.1891145901,	0.1704774099},
    {0.1461318052,	0.5101175972,	0.7409063353,	0.6671005532,	0.1732922732,	0.6585441725,	0.7677328316,	0.4653534298,	0.3485311250,	0.2536799847,	0.1953680942,	0.1730992013},
    {0.1283470013,	0.5421125119,	0.7774325553,	0.6604837835,	0.1424038820,	0.6991912070,	0.7739416745,	0.4546087649,	0.3492868163,	0.2588733830,	0.1989045586,	0.1707212975},
    {0.1257780852,	0.5310943956,	0.7714458927,	0.6675344397,	0.1449234789,	0.6896515968,	0.8014111007,	0.4740585982,	0.3686828930,	0.2828012490,	0.2191745375,	0.1819401256},
    {0.1746862958,	0.5215594872,	0.7271900576,	0.6456231695,	0.1952220978,	0.6548112816,	0.8490122295,	0.5460379048,	0.4386787997,	0.3585037915,	0.2941303317,	0.2472410219},
    {0.2861377334,	0.5068333510,	0.6311761140,	0.5919297104,	0.3070175439,	0.5818125259,	0.9028222013,	0.6576132915,	0.5524418275,	0.4873191869,	0.4220468366,	0.3685750869},
    {0.4535124988,	0.5033372179,	0.5003031222,	0.5017897820,	0.4665920119,	0.4906677727,	0.9114769520,	0.7801820624,	0.6976290185,	0.6532530428,	0.5845085608,	0.5305774038},
    {0.6322497777,	0.5201822227,	0.3752652319,	0.3950536935,	0.6279395297,	0.4133139776,	0.8536218250,	0.8966820873,	0.8475392802,	0.8205250749,	0.7469271575,	0.6991037132},
    {0.7800612588,	0.5566267613,	0.2879660503,	0.2953682612,	0.7514930944,	0.3714226462,	0.7483537159,	0.9573695468,	0.9311691174,	0.9167781814,	0.8557812567,	0.8281202366},
    {0.9035668412,	0.5801462019,	0.2100636557,	0.2154246664,	0.8577827548,	0.3296350062,	0.6124176858,	0.9561259514,	0.9391353632,	0.9234372013,	0.8991676370,	0.9156149015},
    {0.9670981128,	0.5484691175,	0.1386026069,	0.1968760169,	0.9318775663,	0.2652426379,	0.4954844779,	0.9113565140,	0.9047514090,	0.8693366469,	0.8720834951,	0.9329918907},
    {0.8654283174,	0.4425256913,	0.1408760230,	0.3068662545,	0.8824188130,	0.2149523019,	0.4202257761,	0.7298413172,	0.7258100066,	0.6913592047,	0.7135463837,	0.8056216084},
    {0.6412409841,	0.3578768937,	0.2522734162,	0.4732617421,	0.7080067189,	0.2496889258,	0.2952022578,	0.4104859971,	0.4044522812,	0.4007837890,	0.4453788761,	0.5583196147},
    {0.3872147021,	0.3657167073,	0.4526371628,	0.6087428138,	0.4646323255,	0.3906055579,	0.2067732832,	0.1548525096,	0.1359929469,	0.1357293061,	0.1737611593,	0.2821169441},
    {0.2753680466,	0.3826676555,	0.5506214004,	0.6614600282,	0.3514371034,	0.4659892161,	0.1871119473,	0.0947619758,	0.0657451431,	0.0552475626,	0.0752145599,	0.1632217548},
    {0.2608437901,	0.4095772857,	0.5810851773,	0.6556025599,	0.3258678611,	0.5000000000,	0.2981185325,	0.2014624683,	0.1470134450,	0.1136175365,	0.1096303963,	0.1704164380},
    {0.2385139808,	0.4425256913,	0.6217035465,	0.6509382796,	0.2903135498,	0.5438614683,	0.4801505174,	0.3355718052,	0.2439938285,	0.1834575926,	0.1591408979,	0.1885250899},
    {0.2032407865,	0.4183705901,	0.6315550167,	0.6827204686,	0.2675438596,	0.5388842804,	0.6169332079,	0.4250609362,	0.3021190844,	0.2189511247,	0.1764781990,	0.1828547040},
    {0.1874320719,	0.3790655790,	0.6154895423,	0.7115739234,	0.2699701381,	0.5086063874,	0.6614299153,	0.4555041536,	0.3233414150,	0.2288281399,	0.1777720274,	0.1759648802},
    {0.1721173797,	0.3510965145,	0.6073052440,	0.7342444951,	0.2678238149,	0.4893197843,	0.6767638758,	0.4571954435,	0.3250417205,	0.2261836488,	0.1713028852,	0.1659654899},
    {0.1636201956,	0.3428329272,	0.6079114883,	0.7431391691,	0.2634378499,	0.4856905848,	0.7065851364,	0.4618216187,	0.3286942284,	0.2257057287,	0.1691465045,	0.1606609353},
    {0.1655962850,	0.3509905710,	0.6121551985,	0.7379325306,	0.2617581187,	0.4926379096,	0.7435559737,	0.4740088544,	0.3355269372,	0.2283502198,	0.1727692241,	0.1648070240},
    {0.1615453018,	0.3541688738,	0.6175356169,	0.7384748888,	0.2565322882,	0.4978224803,	0.7655691439,	0.4816196588,	0.3387071381,	0.2298477028,	0.1728554794,	0.1649899396},
    {0.1514672463,	0.3540629304,	0.6251894513,	0.7441154138,	0.2470138111,	0.5030070510,	0.7739416745,	0.4813709397,	0.3385811896,	0.2278722998,	0.1687152284,	0.1579172002},
    {0.1383262523,	0.3539569870,	0.6352682631,	0.7512745417,	0.2346957820,	0.5098506844,	0.7756349953,	0.4781873352,	0.3360937057,	0.2239533550,	0.1620304481,	0.1471251753},
    {0.1319039621,	0.3702722746,	0.6517884207,	0.7465017898,	0.2214445689,	0.5291372874,	0.7837253057,	0.4823658160,	0.3386441639,	0.2253233926,	0.1628930004,	0.1457837937},
    {0.1433652801,	0.3937917152,	0.6598211579,	0.7281700835,	0.2219111609,	0.5461426794,	0.7974600188,	0.4906730339,	0.3446582071,	0.2304212069,	0.1692327597,	0.1536491677},
    {0.1463294141,	0.3989829431,	0.6612609882,	0.7238312181,	0.2224710713,	0.5496681875,	0.8031044214,	0.4942048450,	0.3474920495,	0.2327470847,	0.1719929271,	0.1568197061},
    {0.1389190791,	0.3856340714,	0.6573961807,	0.7347868532,	0.2212579321,	0.5404396516,	0.7945437441,	0.4883350744,	0.3449415914,	0.2294972281,	0.1670332514,	0.1504176575},
    {0.1277541745,	0.3683652929,	0.6536071537,	0.7497559388,	0.2183650616,	0.5294483617,	0.7877704610,	0.4822663284,	0.3410686734,	0.2244312751,	0.1604347264,	0.1402963234},
    {0.1341764648,	0.3750397288,	0.6534555926,	0.7428137542,	0.2215378873,	0.5325591041,	0.7974600188,	0.4868925036,	0.3431468245,	0.2258331740,	0.1617716824,	0.1420035364},
    {0.1435628890,	0.3899777519,	0.6570172780,	0.7300141013,	0.2236842105,	0.5424097885,	0.8107243650,	0.4951499776,	0.3474920495,	0.2294016440,	0.1670332514,	0.1474910066},
    {0.1421796265,	0.3946392626,	0.6613367687,	0.7283870268,	0.2204180664,	0.5475943592,	0.8185324553,	0.4980848630,	0.3486255864,	0.2312814631,	0.1693190150,	0.1502347418},
    {0.1333860290,	0.3806547304,	0.6580782055,	0.7404273782,	0.2182717432,	0.5385732061,	0.8073377234,	0.4923643237,	0.3445322586,	0.2277129931,	0.1640574460,	0.1433449180},
    {0.1250864539,	0.3617968005,	0.6509548348,	0.7545286907,	0.2187383352,	0.5244711738,	0.8000940734,	0.4883350744,	0.3410686734,	0.2241445230,	0.1586233665,	0.1379793915},
    {0.1356585318,	0.3629621782,	0.6436799030,	0.7481288643,	0.2281634938,	0.5200124430,	0.8054562559,	0.4917176541,	0.3426115432,	0.2258013127,	0.1610385130,	0.1423693677},
    {0.1522576820,	0.3782180316,	0.6419369506,	0.7312072893,	0.2371220605,	0.5263376192,	0.8188146754,	0.4990797393,	0.3479013823,	0.2298477028,	0.1672488895,	0.1518200110},
    {0.1511708329,	0.3801250132,	0.6440588057,	0.7308818744,	0.2353490108,	0.5286188304,	0.8264346190,	0.5021141123,	0.3498220977,	0.2307079590,	0.1688877388,	0.1546247180},
    {0.1395119059,	0.3667761415,	0.6434525614,	0.7441154138,	0.2301231803,	0.5217751970,	0.8191909690,	0.4953986967,	0.3449730785,	0.2253552539,	0.1623754690,	0.1457228218},
    {0.1299278727,	0.3561817989,	0.6432252198,	0.7547456340,	0.2258305338,	0.5163832435,	0.8121354657,	0.4897279013,	0.3403444693,	0.2201299943,	0.1549575193,	0.1363941223},
    {0.1336824424,	0.3591482149,	0.6424674144,	0.7512745417,	0.2279768570,	0.5173164662,	0.8183443086,	0.4926627866,	0.3420762618,	0.2199706876,	0.1555181783,	0.1356014877},
    {0.1379310345,	0.3638097256,	0.6426189754,	0.7465017898,	0.2299365435,	0.5197013687,	0.8376293509,	0.4997264090,	0.3450990270,	0.2216593386,	0.1585371113,	0.1405402110},
    {0.1359549452,	0.3564996292,	0.6388299485,	0.7513830133,	0.2313363195,	0.5134798839,	0.8476011289,	0.5066905437,	0.3472401524,	0.2232205442,	0.1601759607,	0.1434668618},
    {0.1250864539,	0.3356287742,	0.6322370415,	0.7679791734,	0.2303098171,	0.4988593944,	0.8410159925,	0.5030592449,	0.3442803615,	0.2192378768,	0.1541380946,	0.1365160661},
    {0.1170832922,	0.3209026380,	0.6278417702,	0.7799110533,	0.2291899963,	0.4885939444,	0.8330197554,	0.4985325573,	0.3395258037,	0.2121965207,	0.1454263165,	0.1271873666},
    {0.1190593815,	0.3173005615,	0.6237496211,	0.7806703547,	0.2326427772,	0.4840315222,	0.8404515522,	0.5026612943,	0.3399036494,	0.2105397311,	0.1440462328,	0.1261508445},
    {0.1300266772,	0.3185718826,	0.6161715671,	0.7739451134,	0.2424412094,	0.4794691000,	0.8609595484,	0.5140526290,	0.3456972827,	0.2164978016,	0.1506878855,	0.1360282910},
    {0.1374370122,	0.3126390507,	0.6063200970,	0.7729688686,	0.2520530049,	0.4698257984,	0.8692380056,	0.5226583097,	0.3507037375,	0.2207353597,	0.1554750507,	0.1418815926},
    {0.1239996048,	0.2982307448,	0.6063200970,	0.7877210110,	0.2457073535,	0.4627747822,	0.8582314205,	0.5199721435,	0.3472086653,	0.2158924361,	0.1496959503,	0.1343210780},
    {0.1170832922,	0.2919800826,	0.6072294635,	0.7946631956,	0.2418812990,	0.4603898797,	0.8506114770,	0.5185793165,	0.3445007714,	0.2114955713,	0.1453831889,	0.1285287482},
    {0.1299278727,	0.3154995233,	0.6141254926,	0.7755721879,	0.2437476670,	0.4765657404,	0.8611476952,	0.5243495996,	0.3474290752,	0.2130249156,	0.1478414629,	0.1332845558},
    {0.1401047327,	0.3427269838,	0.6257956957,	0.7560472936,	0.2413213886,	0.4978224803,	0.8776105362,	0.5343481072,	0.3539469127,	0.2182183139,	0.1551731574,	0.1417596488},
    {0.1447485426,	0.3535332133,	0.6299636253,	0.7480203927,	0.2409481150,	0.5060141020,	0.8830667921,	0.5404665970,	0.3571271136,	0.2198432422,	0.1586233665,	0.1463325407},
    {0.1325955933,	0.3424091535,	0.6312518945,	0.7603861590,	0.2344158268,	0.5014516798,	0.8774223895,	0.5378301746,	0.3534746056,	0.2143312305,	0.1519817139,	0.1387110542},
    {0.1272601522,	0.3346752834,	0.6298878448,	0.7673283436,	0.2327360956,	0.4967855662,	0.8693320790,	0.5336516938,	0.3486570736,	0.2069393997,	0.1442187433,	0.1320651180},
    {0.1322991799,	0.3407140587,	0.6303425280,	0.7613624037,	0.2348824188,	0.5000000000,	0.8714016933,	0.5363378600,	0.3495072263,	0.2058561142,	0.1438737223,	0.1350527407},
    {0.1436616935,	0.3526856659,	0.6301151864,	0.7491051090,	0.2402948862,	0.5057030278,	0.8888052681,	0.5468338059,	0.3536950156,	0.2094564455,	0.1484021219,	0.1420645083},
    {0.1509732240,	0.3502489671,	0.6228402546,	0.7462848465,	0.2482269504,	0.4995852343,	0.8985888993,	0.5554394866,	0.3562139866,	0.2104441471,	0.1499115884,	0.1460886531},
    {0.1452425650,	0.3325564149,	0.6145801758,	0.7584336696,	0.2506532288,	0.4852758192,	0.8904985889,	0.5538974282,	0.3525929658,	0.2049958580,	0.1435718290,	0.1391378574},
    {0.1433652801,	0.3214323551,	0.6080630494,	0.7651589109,	0.2538260545,	0.4753214434,	0.8863593603,	0.5514102373,	0.3503573790,	0.2007582999,	0.1400784923,	0.1345649656},
    {0.1544313803,	0.3311791503,	0.6065474386,	0.7540948042,	0.2599850691,	0.4790543343,	0.8917215428,	0.5588220664,	0.3543877326,	0.2030204550,	0.1433561910,	0.1402353515},
    {0.1722161842,	0.3464350037,	0.6038193392,	0.7365223994,	0.2700634565,	0.4846536707,	0.9051740357,	0.5707108392,	0.3621650556,	0.2088192188,	0.1507310131,	0.1520029267},
    {0.1790336923,	0.3466468906,	0.5987420430,	0.7327258922,	0.2763157895,	0.4813355454,	0.9092191910,	0.5791175446,	0.3682420731,	0.2142356465,	0.1569845172,	0.1601731602},
    {0.1734018378,	0.3322385846,	0.5927553804,	0.7431391691,	0.2774356103,	0.4701368727,	0.8973659454,	0.5796149828,	0.3702572499,	0.2169119990,	0.1586233665,	0.1609657948},
    {0.1795277147,	0.3307553766,	0.5869960594,	0.7406443215,	0.2837812617,	0.4654707590,	0.8760112888,	0.5737949560,	0.3709499669,	0.2197476582,	0.1626342347,	0.1633436986},
    {0.1980041498,	0.3577709503,	0.5921491361,	0.7166720902,	0.2893803658,	0.4821650767,	0.8623706491,	0.5729990549,	0.3772159073,	0.2312496017,	0.1759175400,	0.1779159807},
    {0.2111451438,	0.3886004873,	0.6041224614,	0.6936761037,	0.2881672266,	0.5054956450,	0.8552210724,	0.5743421380,	0.3843005132,	0.2434206334,	0.1905809290,	0.1935247851},
    {0.2084774232,	0.3996186037,	0.6140497120,	0.6894457099,	0.2808883912,	0.5176275404,	0.8471307620,	0.5681739044,	0.3865046129,	0.2497291786,	0.1984732824,	0.1998658618},
    {0.1990909989,	0.3983472826,	0.6203394968,	0.6951947066,	0.2725830534,	0.5213604314,	0.8233301976,	0.5548923046,	0.3837022576,	0.2524692538,	0.1997671109,	0.1975489299},
    {0.1947436024,	0.4021612459,	0.6264019400,	0.6956285931,	0.2667973124,	0.5273745334,	0.8047977422,	0.5437496891,	0.3806165182,	0.2538392914,	0.1998964937,	0.1948661667},
    {0.1968184962,	0.4136031359,	0.6329948469,	0.6886864085,	0.2637178052,	0.5374326006,	0.8070555033,	0.5400686465,	0.3812147738,	0.2584591856,	0.2048130418,	0.1987073959},
    {0.2040312222,	0.4288589893,	0.6383752652,	0.6768630003,	0.2638111236,	0.5486312733,	0.8170272813,	0.5406158285,	0.3837022576,	0.2655324030,	0.2132229266,	0.2075483202},
    {0.2000790436,	0.4240915351,	0.6379963625,	0.6815272806,	0.2621313923,	0.5460389880,	0.8176857949,	0.5389742824,	0.3830725149,	0.2670936086,	0.2150774141,	0.2076092921},
    {0.1822942397,	0.3998304905,	0.6342831161,	0.7036554941,	0.2560656962,	0.5316258814,	0.8030103481,	0.5270855096,	0.3757360118,	0.2618364876,	0.2086945271,	0.1986464240},
    {0.1687580279,	0.3900836953,	0.6376932404,	0.7161297321,	0.2474804031,	0.5292409788,	0.7949200376,	0.5152464806,	0.3685884316,	0.2564837826,	0.2010609393,	0.1879153710},
    {0.1694496591,	0.4057633224,	0.6483782965,	0.7077774162,	0.2413213886,	0.5441725425,	0.8009407338,	0.5123115953,	0.3670770490,	0.2564519212,	0.2009315565,	0.1873056521},
    {0.1803181504,	0.4314016315,	0.6583813277,	0.6885779369,	0.2402948862,	0.5635628370,	0.8083725306,	0.5163408447,	0.3706036084,	0.2605620340,	0.2067537844,	0.1946222791},
    {0.1783420611,	0.4395592753,	0.6657320400,	0.6855407311,	0.2347891004,	0.5725839900,	0.8078080903,	0.5149977615,	0.3707610441,	0.2621551010,	0.2092120585,	0.1964514359},
    {0.1651022626,	0.4322491789,	0.6706577751,	0.6964963662,	0.2254572602,	0.5723766072,	0.7969896519,	0.5047007909,	0.3651878208,	0.2576945135,	0.2029585544,	0.1873056521},
    {0.1584823634,	0.4237737048,	0.6697484086,	0.7045232672,	0.2229376633,	0.5676068022,	0.7891815616,	0.4985325573,	0.3612204414,	0.2534888167,	0.1994652176,	0.1819401256},
    {0.1727102065,	0.4307659710,	0.6638375265,	0.6931337455,	0.2332960060,	0.5669846537,	0.7929444967,	0.5029100134,	0.3634560282,	0.2559102785,	0.2036485962,	0.1878543991},
    {0.1864440273,	0.4375463502,	0.6580782055,	0.6820696388,	0.2433743934,	0.5663625052,	0.8041392286,	0.5136546784,	0.3690607387,	0.2617727649,	0.2109371631,	0.1982805926},
    {0.1859500049,	0.4275876682,	0.6513337375,	0.6874932205,	0.2472937663,	0.5569265865,	0.8111947319,	0.5172362334,	0.3707295570,	0.2644809788,	0.2135679476,	0.2032193159},
    {0.1720185752,	0.4022671893,	0.6439072446,	0.7081028311,	0.2452407615,	0.5394027375,	0.8009407338,	0.5090285032,	0.3661954092,	0.2600841139,	0.2076594644,	0.1951100543},
    {0.1652010671,	0.3891302045,	0.6397393149,	0.7186245797,	0.2445875327,	0.5300705102,	0.7945437441,	0.5030095011,	0.3604647501,	0.2545721022,	0.2003708975,	0.1862691299},
    {0.1699436815,	0.3872232228,	0.6347377993,	0.7169975052,	0.2499066816,	0.5257154708,	0.8051740357,	0.5054966920,	0.3608740829,	0.2551456063,	0.2014922155,	0.1883421743},
    {0.1813061950,	0.3920966204,	0.6295089421,	0.7082113027,	0.2584919746,	0.5245748652,	0.8162746943,	0.5119633885,	0.3647470009,	0.2595106098,	0.2070125501,	0.1966343516},
    {0.1805157593,	0.3829854858,	0.6235222795,	0.7133094696,	0.2617581187,	0.5160721692,	0.8217309501,	0.5137541660,	0.3658805378,	0.2601159753,	0.2085220166,	0.1984635083},
    {0.1678687877,	0.3670939718,	0.6219308881,	0.7283870268,	0.2568122434,	0.5071547076,	0.8087488241,	0.5076854201,	0.3620076199,	0.2557828331,	0.2023116401,	0.1905981343},
    {0.1615453018,	0.3591482149,	0.6210215217,	0.7359800412,	0.2543859649,	0.5025922854,	0.7962370649,	0.5011689798,	0.3576623949,	0.2512266616,	0.1959718808,	0.1832205353},
    {0.1682640055,	0.3663523678,	0.6210973022,	0.7286039701,	0.2575587906,	0.5062214849,	0.7994355597,	0.5031587325,	0.3590163418,	0.2521187791,	0.1973088368,	0.1845619170},
    {0.1839739156,	0.3774764276,	0.6170051531,	0.7142857143,	0.2674505412,	0.5089174616,	0.8098777046,	0.5099238920,	0.3647155137,	0.2579175429,	0.2050286799,	0.1939515883},
    {0.1909890327,	0.3773704842,	0.6115489542,	0.7103807354,	0.2741694662,	0.5050808793,	0.8107243650,	0.5131572402,	0.3669196133,	0.2617090422,	0.2095139518,	0.1986464240},
    {0.1827882620,	0.3642334993,	0.6085177326,	0.7216617854,	0.2721164614,	0.4965781833,	0.7941674506,	0.5053972044,	0.3632356182,	0.2593831645,	0.2066244016,	0.1939515883},
    {0.1725125976,	0.3594660451,	0.6129130039,	0.7296886864,	0.2645576708,	0.4972003318,	0.7793979304,	0.4978858877,	0.3594886489,	0.2562288919,	0.2026566611,	0.1890738370},
    {0.1808121727,	0.3702722746,	0.6142012731,	0.7196008244,	0.2677304965,	0.5034218167,	0.7813734713,	0.4991792270,	0.3603388016,	0.2565475053,	0.2037348514,	0.1902932748},
    {0.1905938148,	0.3805487869,	0.6141254926,	0.7089706042,	0.2723030982,	0.5083990046,	0.7927563500,	0.5046013033,	0.3639598224,	0.2599248072,	0.2080044853,	0.1962685202},
    {0.1863452228,	0.3799131264,	0.6169293725,	0.7116823951,	0.2686636805,	0.5099543758,	0.7956726246,	0.5065910561,	0.3654082307,	0.2614860129,	0.2093414413,	0.1974269862},
    {0.1714257484,	0.3649751033,	0.6176871779,	0.7275192537,	0.2611048899,	0.5032144338,	0.7827845720,	0.4999751281,	0.3616297742,	0.2577900975,	0.2033467029,	0.1889518932},
    {0.1659915028,	0.3610551965,	0.6190512276,	0.7325089489,	0.2577454274,	0.5022812111,	0.7748824083,	0.4951002338,	0.3590478290,	0.2550818836,	0.1995514728,	0.1832815072},
    {0.1752791226,	0.3763110499,	0.6228402546,	0.7196008244,	0.2597051138,	0.5122355869,	0.7829727187,	0.5006217977,	0.3617557228,	0.2572803161,	0.2030448096,	0.1879763429},
    {0.1828870665,	0.3882826571,	0.6255683540,	0.7092960191,	0.2616648003,	0.5200124430,	0.7986829727,	0.5065910561,	0.3652507951,	0.2603708660,	0.2082201233,	0.1948051948},
    {0.1800217370,	0.3869053925,	0.6267808427,	0.7115739234,	0.2595184770,	0.5202198258,	0.8024459078,	0.5082326021,	0.3657231021,	0.2608806474,	0.2085651443,	0.1957807451},
    {0.1680663966,	0.3773704842,	0.6291300394,	0.7230719167,	0.2524262785,	0.5171090834,	0.7855126999,	0.4987315326,	0.3599924431,	0.2563881986,	0.2026566611,	0.1882202305},
    {0.1623357376,	0.3801250132,	0.6354956047,	0.7248074628,	0.2458939903,	0.5228121112,	0.7688617121,	0.4899766204,	0.3556157310,	0.2522462244,	0.1979126235,	0.1818791537},
    {0.1683628100,	0.3968640746,	0.6428463171,	0.7128755830,	0.2442142591,	0.5360846122,	0.7727187206,	0.4925135552,	0.3578513177,	0.2546995476,	0.2007159184,	0.1842570575},
    {0.1772552119,	0.4201716284,	0.6526977872,	0.6960624797,	0.2422545726,	0.5541269183,	0.7869238006,	0.5003233348,	0.3629207469,	0.2605301727,	0.2074006987,	0.1932808975},
    {0.1744886869,	0.4243034220,	0.6578508639,	0.6955201215,	0.2377752893,	0.5597262547,	0.7876763876,	0.4999751281,	0.3636764382,	0.2618046263,	0.2096002070,	0.1959026889},
    {0.1611500840,	0.4129674754,	0.6598969385,	0.7085367176,	0.2302164987,	0.5555785981,	0.7723424271,	0.4902750833,	0.3587329576,	0.2578538202,	0.2037348514,	0.1890738370},
    {0.1563086652,	0.4140269096,	0.6644437708,	0.7107061503,	0.2251773050,	0.5592077976,	0.7623706491,	0.4836591553,	0.3546711168,	0.2537437074,	0.1991633243,	0.1825498445},
    {0.1674735698,	0.4307659710,	0.6677781146,	0.6960624797,	0.2283501306,	0.5696806304,	0.7688617121,	0.4887330249,	0.3570326522,	0.2561333078,	0.2029585544,	0.1876105116},
    {0.1789348879,	0.4444326730,	0.6687632616,	0.6827204686,	0.2332026876,	0.5770427209,	0.7841956726,	0.4969904989,	0.3614408514,	0.2601478366,	0.2087376547,	0.1965124078},
    {0.1750815137,	0.4414662570,	0.6696726281,	0.6863000325,	0.2308697275,	0.5762131895,	0.7904045155,	0.4980848630,	0.3611574672,	0.2597973619,	0.2083495062,	0.1966343516},
    {0.1636201956,	0.4202775718,	0.6633070627,	0.7034385508,	0.2293766331,	0.5614890087,	0.7769520226,	0.4905735462,	0.3562769609,	0.2553367744,	0.2021822573,	0.1890738370},
    {0.1588775813,	0.3995126602,	0.6519399818,	0.7167805619,	0.2340425532,	0.5435503940,	0.7695202258,	0.4847037756,	0.3524985044,	0.2514178296,	0.1967913055,	0.1831595634},
    {0.1665843296,	0.3996186037,	0.6461806608,	0.7124416965,	0.2412280702,	0.5397138117,	0.7817497648,	0.4898273889,	0.3550174754,	0.2533295100,	0.1996808557,	0.1871227364},
    {0.1768599941,	0.4008899248,	0.6392088512,	0.7061503417,	0.2504665920,	0.5354624637,	0.7966133584,	0.5000248719,	0.3597405460,	0.2570254253,	0.2044248933,	0.1935857570},
    {0.1780456477,	0.3924144507,	0.6321612610,	0.7098383773,	0.2553191489,	0.5265450021,	0.8002822201,	0.5017659056,	0.3600239302,	0.2565156439,	0.2040798723,	0.1935857570},
    {0.1698448770,	0.3697425575,	0.6223097908,	0.7258921792,	0.2575587906,	0.5087100788,	0.7882408278,	0.4937074069,	0.3542617841,	0.2513541069,	0.1975676025,	0.1860862143},
    {0.1645094358,	0.3621146308,	0.6209457411,	0.7328343638,	0.2557857409,	0.5040439652,	0.7790216369,	0.4885837935,	0.3508296861,	0.2486777544,	0.1934704791,	0.1813304067},
    {0.1752791226,	0.3834092595,	0.6279175508,	0.7160212604,	0.2566256066,	0.5191829117,	0.7841956726,	0.4907227777,	0.3539469127,	0.2522143631,	0.1981713891,	0.1874885678},
    {0.1882225077,	0.3967581312,	0.6275386481,	0.7020284196,	0.2629712579,	0.5255080879,	0.7927563500,	0.4943540765,	0.3576309078,	0.2557509718,	0.2036054686,	0.1954149137},
    {0.1799229325,	0.3838330332,	0.6246589876,	0.7132009979,	0.2608249347,	0.5172127748,	0.7871119473,	0.4926130428,	0.3558046538,	0.2536162620,	0.2019666192,	0.1942564478},
    {0.1671771564,	0.3623265176,	0.6190512276,	0.7312072893,	0.2582120194,	0.5029033596,	0.7743179680,	0.4831119733,	0.3490664064,	0.2460014019,	0.1928666925,	0.1830985915},
    {0.1583835589,	0.3531094396,	0.6192027887,	0.7407527931,	0.2540126913,	0.4984446288,	0.7621825024,	0.4772919465,	0.3452879499,	0.2417957051,	0.1864406780,	0.1746234986},
    {0.1659915028,	0.3619027439,	0.6196574720,	0.7320750624,	0.2572788354,	0.5031107424,	0.7737535278,	0.4854001890,	0.3484681508,	0.2445039189,	0.1885539311,	0.1775501494},
    {0.1769587985,	0.3826676555,	0.6260988178,	0.7154789023,	0.2584919746,	0.5176275404,	0.7947318909,	0.4954981844,	0.3547026040,	0.2505257121,	0.1966187950,	0.1871837083},
    {0.1717221618,	0.3897658650,	0.6351924826,	0.7146111292,	0.2504665920,	0.5272708420,	0.7963311383,	0.4975376809,	0.3560250638,	0.2525329765,	0.1984301548,	0.1886470337},
    {0.1626321510,	0.3843627503,	0.6382994847,	0.7224210869,	0.2443075775,	0.5267523849,	0.7785512700,	0.4874894294,	0.3518057873,	0.2471802715,	0.1923060336,	0.1796231937},
    {0.1554194250,	0.3780061447,	0.6392846317,	0.7295802148,	0.2402948862,	0.5243674824,	0.7688617121,	0.4810724767,	0.3476809723,	0.2434206334,	0.1867425713,	0.1732821169},
    {0.1604584527,	0.3844686937,	0.6400424371,	0.7236142749,	0.2421612542,	0.5279966819,	0.7758231421,	0.4853007014,	0.3492238421,	0.2455872045,	0.1898908871,	0.1779769526},
    {0.1715245529,	0.3956986969,	0.6395877539,	0.7116823951,	0.2476670399,	0.5331812526,	0.7851364064,	0.4901755957,	0.3531597342,	0.2502389600,	0.1954543494,	0.1849887202},
    {0.1714257484,	0.3960165272,	0.6398908760,	0.7116823951,	0.2473870847,	0.5335960182,	0.7873941675,	0.4918668855,	0.3546396297,	0.2514178296,	0.1975244749,	0.1872446802},
    {0.1590751902,	0.3801250132,	0.6379963625,	0.7265430090,	0.2427211646,	0.5245748652,	0.7719661336,	0.4852012137,	0.3497591234,	0.2471484101,	0.1926079269,	0.1807206878},
    {0.1572967098,	0.3734505774,	0.6345862383,	0.7309903460,	0.2440276222,	0.5188718374,	0.7625587959,	0.4816694026,	0.3478384080,	0.2455553431,	0.1899771424,	0.1777940369},
    {0.1666831341,	0.3828795423,	0.6341315550,	0.7209024840,	0.2487868608,	0.5232268768,	0.7690498589,	0.4857981396,	0.3510500960,	0.2487733384,	0.1935567344,	0.1833424791},
    {0.1744886869,	0.3971819049,	0.6382994847,	0.7092960191,	0.2499066816,	0.5330775612,	0.7840075259,	0.4927125305,	0.3549545011,	0.2527878672,	0.1990339414,	0.1903542467},
    {0.1658926983,	0.3951689798,	0.6435283419,	0.7150450157,	0.2426278462,	0.5356698465,	0.7837253057,	0.4916679103,	0.3540728612,	0.2511310776,	0.1978263682,	0.1877934272},
    {0.1483055034,	0.3811844475,	0.6470142467,	0.7318581191,	0.2321761851,	0.5312111157,	0.7714957667,	0.4842063374,	0.3490034321,	0.2465111833,	0.1911415880,	0.1781598683},
    {0.1428712578,	0.3754635025,	0.6470900273,	0.7378240590,	0.2294699515,	0.5285151389,	0.7665098777,	0.4795801622,	0.3461381026,	0.2439304148,	0.1876913788,	0.1743186391},
    {0.1561110562,	0.3855281280,	0.6442103668,	0.7254582927,	0.2374953341,	0.5314184985,	0.7714957667,	0.4846042879,	0.3489089707,	0.2457783725,	0.1915297365,	0.1784647278},
    {0.1671771564,	0.3983472826,	0.6448166111,	0.7127671114,	0.2424412094,	0.5380547491,	0.7847601129,	0.4917673979,	0.3533801442,	0.2501115147,	0.1972657092,	0.1859642705},
    {0.1654974805,	0.3948511495,	0.6436041225,	0.7154789023,	0.2423478910,	0.5355661551,	0.7867356538,	0.4913197035,	0.3532541957,	0.2498884853,	0.1969638159,	0.1871227364},
    {0.1553206205,	0.3776883144,	0.6390572901,	0.7297971580,	0.2403882046,	0.5240564081,	0.7671683913,	0.4822165846,	0.3466104096,	0.2435162174,	0.1885970587,	0.1774282056},
    {0.1541349669,	0.3706960483,	0.6350409215,	0.7341360234,	0.2422545726,	0.5178349233,	0.7565380997,	0.4759986072,	0.3420132876,	0.2388963232,	0.1828179583,	0.1696847753},
    {0.1636201956,	0.3797012395,	0.6342073356,	0.7242651047,	0.2472004479,	0.5217751970,	0.7608654751,	0.4773416903,	0.3438395415,	0.2411266170,	0.1858800190,	0.1721236510},
    {0.1768599941,	0.3978175654,	0.6370869961,	0.7076689446,	0.2517730496,	0.5325591041,	0.7698965193,	0.4831119733,	0.3487515350,	0.2471165488,	0.1943330314,	0.1843790013},
    {0.1753779271,	0.3981353957,	0.6383752652,	0.7084282460,	0.2502799552,	0.5335960182,	0.7720602070,	0.4841565935,	0.3496961491,	0.2483272797,	0.1963600293,	0.1885860618},
    {0.1659915028,	0.3780061447,	0.6311761140,	0.7238312181,	0.2501866368,	0.5188718374,	0.7647224835,	0.4800776004,	0.3463270254,	0.2437392468,	0.1907103118,	0.1807206878},
    {0.1613476929,	0.3629621782,	0.6239769627,	0.7340275518,	0.2525195969,	0.5065325591,	0.7612417686,	0.4777396408,	0.3442173872,	0.2411584783,	0.1860094018,	0.1739528078},
    {0.1719197708,	0.3751456722,	0.6245074265,	0.7220956720,	0.2571855170,	0.5128577354,	0.7721542803,	0.4840073621,	0.3480588180,	0.2449499777,	0.1905809290,	0.1797451375},
    {0.1798241281,	0.3897658650,	0.6289784783,	0.7102722638,	0.2581187010,	0.5231231854,	0.7921919097,	0.4934586878,	0.3543562455,	0.2512585229,	0.1980420063,	0.1891348089},
    {0.1744886869,	0.3825617120,	0.6279933313,	0.7168890335,	0.2561590146,	0.5188718374,	0.7968015052,	0.4963935731,	0.3549230139,	0.2516408590,	0.1994220900,	0.1893177245},
    {0.1587787768,	0.3591482149,	0.6232191573,	0.7373901725,	0.2517730496,	0.5041476566,	0.7877704610,	0.4883848182,	0.3495072263,	0.2459376792,	0.1915728641,	0.1788915310},
    {0.1522576820,	0.3520500053,	0.6231433768,	0.7446577720,	0.2486935424,	0.5006221485,	0.7774223895,	0.4821170970,	0.3459491798,	0.2419231504,	0.1858368914,	0.1721236510},
    {0.1632249778,	0.3732386905,	0.6298878448,	0.7278446686,	0.2497200448,	0.5156574036,	0.7776105362,	0.4848032632,	0.3490978935,	0.2451092844,	0.1903221633,	0.1774891775},
    {0.1737970556,	0.3960165272,	0.6380721431,	0.7102722638,	0.2497200448,	0.5323517213,	0.7809031044,	0.4896781575,	0.3525299915,	0.2490282291,	0.1960150084,	0.1853545516},
    {0.1715245529,	0.3979235088,	0.6411033647,	0.7105976787,	0.2467338559,	0.5353587723,	0.7706491063,	0.4872407103,	0.3510500960,	0.2487733384,	0.1958424980,	0.1854764953},
    {0.1616441063,	0.3926263375,	0.6449681722,	0.7187330513,	0.2397349757,	0.5353587723,	0.7493885230,	0.4764463015,	0.3457287698,	0.2445357803,	0.1907965670,	0.1788915310},
    {0.1610512795,	0.3943214324,	0.6466353440,	0.7181906931,	0.2384285181,	0.5374326006,	0.7362182502,	0.4683380590,	0.3419818004,	0.2415408144,	0.1872601026,	0.1750503018},
    {0.1709317261,	0.4043860578,	0.6461806608,	0.7075604729,	0.2432810750,	0.5419950228,	0.7438381938,	0.4722678207,	0.3446582071,	0.2446313643,	0.1913572260,	0.1807816597},
    {0.1821954352,	0.4139209662,	0.6444377084,	0.6964963662,	0.2497200448,	0.5455205309,	0.7622765757,	0.4834601801,	0.3507667118,	0.2506531575,	0.1985595377,	0.1892567526},
    {0.1782432566,	0.4104248331,	0.6449681722,	0.7005098167,	0.2475737215,	0.5440688511,	0.7654750706,	0.4849524947,	0.3510500960,	0.2510673549,	0.1994652176,	0.1902932748},
    {0.1644106314,	0.3960165272,	0.6452712943,	0.7154789023,	0.2408547966,	0.5372252178,	0.7545625588,	0.4782868229,	0.3462325640,	0.2461925699,	0.1928235649,	0.1818181818},
    {0.1582847545,	0.3920966204,	0.6472415884,	0.7207940124,	0.2367487869,	0.5367067607,	0.7498588899,	0.4746057802,	0.3435876444,	0.2433250494,	0.1889852072,	0.1763916834},
    {0.1646082403,	0.4021612459,	0.6495150045,	0.7122247532,	0.2383351997,	0.5431356284,	0.7588899341,	0.4803263195,	0.3476494852,	0.2469572421,	0.1932117135,	0.1813304067},
    {0.1725125976,	0.4082000212,	0.6478478327,	0.7048486821,	0.2430011198,	0.5450020738,	0.7766698024,	0.4882853305,	0.3530337857,	0.2521825018,	0.2000258766,	0.1888299494},
    {0.1684616145,	0.3983472826,	0.6438314641,	0.7121162816,	0.2435610302,	0.5374326006,	0.7800564440,	0.4897279013,	0.3535060928,	0.2513541069,	0.2000690042,	0.1896225840},
    {0.1579883411,	0.3763110499,	0.6361018490,	0.7291463282,	0.2434677118,	0.5213604314,	0.7704609595,	0.4833109486,	0.3501369690,	0.2465749060,	0.1944192867,	0.1824279007},
    {0.1563086652,	0.3701663312,	0.6329948469,	0.7331597787,	0.2445875327,	0.5161758606,	0.7683913452,	0.4802765756,	0.3474920495,	0.2443127509,	0.1904084185,	0.1771233461},
    {0.1661891117,	0.3823498252,	0.6341315550,	0.7215533138,	0.2485069056,	0.5230194940,	0.7794920038,	0.4849524947,	0.3494757392,	0.2463837380,	0.1929960754,	0.1820010975},
    {0.1742910780,	0.3911431296,	0.6342073356,	0.7125501681,	0.2523329601,	0.5272708420,	0.7900282220,	0.4898273889,	0.3529078371,	0.2505257121,	0.1976538578,	0.1882202305},
    {0.1722161842,	0.3888123742,	0.6341315550,	0.7149365441,	0.2513064576,	0.5261302364,	0.7894637817,	0.4910709844,	0.3536005542,	0.2506531575,	0.1978263682,	0.1883421743},
    {0.1646082403,	0.3766288802,	0.6312518945,	0.7253498210,	0.2495334080,	0.5181459975,	0.7783631232,	0.4851017261,	0.3504518404,	0.2466067673,	0.1928235649,	0.1823669288},
    {0.1641142180,	0.3807606738,	0.6345862383,	0.7235058032,	0.2472004479,	0.5225010369,	0.7702728128,	0.4820176093,	0.3485626122,	0.2447588097,	0.1898046319,	0.1780988964},
    {0.1754767315,	0.3959105837,	0.6367080934,	0.7094044907,	0.2513064576,	0.5314184985,	0.7799623706,	0.4895786699,	0.3532856828,	0.2489326451,	0.1951955837,	0.1837692824},
    {0.1848631558,	0.4059752092,	0.6367838739,	0.6992081571,	0.2556924225,	0.5363956864,	0.7979303857,	0.5011192359,	0.3603073145,	0.2550818836,	0.2028291715,	0.1927321505},
    {0.1798241281,	0.3983472826,	0.6351167020,	0.7058249268,	0.2542926465,	0.5315221900,	0.8015992474,	0.5033079640,	0.3604017759,	0.2553049130,	0.2032173201,	0.1912078532},
    {0.1658926983,	0.3808666172,	0.6332979691,	0.7224210869,	0.2488801792,	0.5216715056,	0.7841015992,	0.4944038203,	0.3549545011,	0.2505575734,	0.1973950921,	0.1826717883},
    {0.1607548661,	0.3695306706,	0.6290542589,	0.7309903460,	0.2490668160,	0.5132725010,	0.7711194732,	0.4894294384,	0.3517743002,	0.2486777544,	0.1938586277,	0.1782818121},
    {0.1742910780,	0.3784299184,	0.6251136708,	0.7190584662,	0.2579320642,	0.5148278723,	0.7755409219,	0.4929612496,	0.3541673226,	0.2523099471,	0.1982145168,	0.1847448326},
    {0.1831834799,	0.3865875622,	0.6242043043,	0.7100553205,	0.2625979843,	0.5182496889,	0.7852304798,	0.4983335821,	0.3577883435,	0.2563244759,	0.2031741924,	0.1918785440},
    {0.1761683628,	0.3826676555,	0.6267808427,	0.7158043172,	0.2577454274,	0.5181459975,	0.7846660395,	0.4973387057,	0.3572845493,	0.2552093290,	0.2015784707,	0.1898054997},
    {0.1633237822,	0.3718614260,	0.6289026978,	0.7284954984,	0.2503732736,	0.5143094152,	0.7666980245,	0.4873899418,	0.3510815832,	0.2487096158,	0.1934704791,	0.1786476434},
    {0.1568026875,	0.3766288802,	0.6372385571,	0.7295802148,	0.2421612542,	0.5222936541,	0.7543744120,	0.4781375914,	0.3454768727,	0.2432613267,	0.1873032303,	0.1708432413},
    {0.1608536706,	0.4114842674,	0.6590633525,	0.7095129624,	0.2306830907,	0.5542306097,	0.7551269991,	0.4736606477,	0.3454768727,	0.2446950870,	0.1903652909,	0.1731601732},
    {0.1572967098,	0.4580993749,	0.6951348894,	0.6876016922,	0.2067935797,	0.6018249689,	0.7578551270,	0.4689847286,	0.3475235366,	0.2488689224,	0.1929529478,	0.1727943418},
    {0.1299278727,	0.4874457040,	0.7371173083,	0.6876016922,	0.1679731243,	0.6448569058,	0.7587958608,	0.4544097896,	0.3430838502,	0.2474988849,	0.1893733558,	0.1623071764},
    {0.1134275269,	0.4819366458,	0.7458320703,	0.6994251003,	0.1548152296,	0.6481750311,	0.7714957667,	0.4604785355,	0.3527504015,	0.2602115593,	0.1977401130,	0.1618803731},
    {0.1571979053,	0.4943320267,	0.7211276144,	0.6690530426,	0.1906494961,	0.6372874326,	0.8112888053,	0.5179326469,	0.4097106332,	0.3240616836,	0.2596282400,	0.2152307786},
    {0.2631162929,	0.5153088251,	0.6548954229,	0.6002820263,	0.2815416200,	0.6022397345,	0.8689557855,	0.6176690046,	0.5151925438,	0.4466003951,	0.3826281968,	0.3278458631},
    {0.4052959194,	0.5223010912,	0.5507729615,	0.5186028853,	0.4127472938,	0.5344255496,	0.8688617121,	0.7262597622,	0.6480367770,	0.6077869114,	0.5408202872,	0.4798487897},
    {0.5648651319,	0.5364975103,	0.4386177630,	0.4237986766,	0.5571108623,	0.4646412277,	0.8050799624,	0.8281848480,	0.7926257124,	0.7814949340,	0.7082416872,	0.6456923358},
    {0.7116885683,	0.5688102553,	0.3491209457,	0.3266080920,	0.6815976110,	0.4192243882,	0.7008466604,	0.8923543750,	0.8931326553,	0.9076976996,	0.8409453573,	0.7876958722},
    {0.8480387314,	0.6150015892,	0.2775841164,	0.2281158477,	0.7900335946,	0.3928867690,	0.5595484478,	0.9046410983,	0.9282723008,	0.9590263175,	0.9224996765,	0.9027498323},
    {0.9401244936,	0.6205106473,	0.2109730221,	0.1747478034,	0.8745800672,	0.3499585234,	0.4340545626,	0.8746455753,	0.9217229762,	0.9480978780,	0.9412170613,	0.9635997805},
    {0.8776800711,	0.5307765653,	0.1946044256,	0.2550168131,	0.8551698395,	0.2948983824,	0.3688617121,	0.7387952047,	0.7918070468,	0.8101701396,	0.8212360374,	0.8755563685},
    {0.6818496196,	0.4072465304,	0.2564413459,	0.4257511661,	0.7245240761,	0.2767523849,	0.2527751646,	0.4528677312,	0.4927422148,	0.5307780539,	0.5696295338,	0.6536796537},
    {0.4380001976,	0.3881767136,	0.4298272204,	0.5692591387,	0.5027062337,	0.3860431356,	0.1649106303,	0.1912649853,	0.1941182027,	0.2221372587,	0.2689006771,	0.3678434242},
    {0.3058986266,	0.4086237949,	0.5457714459,	0.6314133854,	0.3688876446,	0.4753214434,	0.1494825964,	0.1087399891,	0.0773324097,	0.0774549162,	0.1126924570,	0.2047436132},
    {0.2909791523,	0.4271638945,	0.5704759018,	0.6301117258,	0.3465845465,	0.5013479884,	0.2729068674,	0.2102173805,	0.1500362102,	0.1223794048,	0.1317117350,	0.1988293397},
    {0.2659816224,	0.4515308825,	0.6070779024,	0.6313049138,	0.3122433744,	0.5382621319,	0.4582314205,	0.3445754365,	0.2511728959,	0.1953737335,	0.1808772157,	0.2170599354},
    {0.2174686296,	0.4306600275,	0.6293573810,	0.6686191561,	0.2756625607,	0.5433430112,	0.6015051740,	0.4321245585,	0.3108410214,	0.2306123749,	0.1934273515,	0.2005365526},
    {0.1950400158,	0.3922025638,	0.6191270082,	0.7006182883,	0.2713699141,	0.5175238490,	0.6756349953,	0.4701785803,	0.3371327813,	0.2412859237,	0.1927804373,	0.1866349613},
    {0.1854559826,	0.3699544443,	0.6104880267,	0.7172144484,	0.2721164614,	0.5007258399,	0.7158043274,	0.4805252947,	0.3450360528,	0.2414133690,	0.1891577177,	0.1785866715},
    {0.1785396700,	0.3677296324,	0.6141254926,	0.7222041436,	0.2666106756,	0.5021775197,	0.7582314205,	0.4898771328,	0.3501054819,	0.2422099025,	0.1879070169,	0.1775501494},
    {0.1725125976,	0.3628562348,	0.6153379812,	0.7280616119,	0.2630645763,	0.5005184571,	0.7936970837,	0.4988310202,	0.3544821940,	0.2432613267,	0.1883382930,	0.1760868240},
    {0.1622369331,	0.3496133065,	0.6136708093,	0.7404273782,	0.2592385218,	0.4929489838,	0.8016933208,	0.4992787146,	0.3530967600,	0.2398840247,	0.1833786173,	0.1686482532},
    {0.1469222409,	0.3319207543,	0.6129130039,	0.7578913114,	0.2524262785,	0.4838241394,	0.7921919097,	0.4914191912,	0.3470827167,	0.2321417192,	0.1730279898,	0.1561490153},
    {0.1428712578,	0.3299078292,	0.6145043953,	0.7611454605,	0.2495334080,	0.4838241394,	0.7806208843,	0.4868427598,	0.3438395415,	0.2280634678,	0.1670332514,	0.1477348942},
    {0.1482066989,	0.3424091535,	0.6192785693,	0.7518168999,	0.2491601344,	0.4932600581,	0.7858889934,	0.4926130428,	0.3479643566,	0.2308354043,	0.1697934187,	0.1520029267},
    {0.1530481178,	0.3520500053,	0.6226129130,	0.7442238855,	0.2493467712,	0.5003110742,	0.8040451552,	0.5014674427,	0.3536950156,	0.2363792774,	0.1755293915,	0.1596853850},
    {0.1477126766,	0.3498251933,	0.6250378903,	0.7482373359,	0.2454273983,	0.5008295313,	0.8065851364,	0.5014674427,	0.3535690670,	0.2352641305,	0.1741493078,	0.1571245656},
    {0.1332872246,	0.3408200021,	0.6295847226,	0.7608200456,	0.2357222844,	0.4995852343,	0.7951081844,	0.4942048450,	0.3495387134,	0.2300707322,	0.1664725924,	0.1479178099},
    {0.1322003755,	0.3495073631,	0.6367080934,	0.7570235383,	0.2308697275,	0.5086063874,	0.7864534337,	0.4894294384,	0.3471456910,	0.2278404384,	0.1633674041,	0.1428571429},
    {0.1461318052,	0.3736624642,	0.6433010003,	0.7369562859,	0.2333893244,	0.5249896309,	0.7954844779,	0.4958961349,	0.3521206587,	0.2324284713,	0.1697934187,	0.1501737699},
    {0.1550242071,	0.3841508634,	0.6439830252,	0.7266514806,	0.2371220605,	0.5305889672,	0.8115710254,	0.5050987415,	0.3578828049,	0.2377811763,	0.1767369647,	0.1610267667},
    {0.1466258275,	0.3671999152,	0.6382994847,	0.7399934917,	0.2367487869,	0.5183533803,	0.8141110066,	0.5071382381,	0.3579142920,	0.2373988402,	0.1757450295,	0.1596853850},
    {0.1352633139,	0.3399724547,	0.6274628675,	0.7601692158,	0.2379619261,	0.4977187889,	0.8050799624,	0.5010197483,	0.3528763500,	0.2318549672,	0.1677664208,	0.1491982196},
    {0.1390178836,	0.3312850938,	0.6184449833,	0.7625555917,	0.2453340799,	0.4872459560,	0.8042333020,	0.5003730786,	0.3510186089,	0.2292423373,	0.1652218916,	0.1458447656},
    {0.1508744195,	0.3326623583,	0.6103364656,	0.7553964638,	0.2558790594,	0.4823724596,	0.8209783631,	0.5088295279,	0.3549545011,	0.2317912445,	0.1700521844,	0.1515761234},
    {0.1537397490,	0.3286365081,	0.6052591694,	0.7558303504,	0.2603583427,	0.4769805060,	0.8410159925,	0.5160921256,	0.3595831103,	0.2341489836,	0.1731142451,	0.1557831840},
    {0.1422784310,	0.3143341456,	0.6038193392,	0.7694977763,	0.2558790594,	0.4689962671,	0.8403574788,	0.5137541660,	0.3577253692,	0.2315682151,	0.1690171217,	0.1508444607},
    {0.1287422191,	0.3102023519,	0.6112458321,	0.7790432802,	0.2448674879,	0.4720033181,	0.8313264346,	0.5073869572,	0.3520891716,	0.2263429555,	0.1622460862,	0.1414547893},
    {0.1282481968,	0.3239749974,	0.6214004244,	0.7722095672,	0.2384285181,	0.4856905848,	0.8310442145,	0.5059941302,	0.3519317359,	0.2252915313,	0.1618579376,	0.1396866045},
    {0.1365477720,	0.3401843416,	0.6267050621,	0.7593014427,	0.2390817469,	0.4973040232,	0.8447789276,	0.5125105706,	0.3567177808,	0.2294016440,	0.1659550610,	0.1457837937},
    {0.1419820176,	0.3482360420,	0.6282964535,	0.7522507864,	0.2406681598,	0.5022812111,	0.8583254939,	0.5219618962,	0.3626373626,	0.2341171223,	0.1716047785,	0.1536491677},
    {0.1341764648,	0.3369000953,	0.6261745984,	0.7623386484,	0.2383351997,	0.4952301949,	0.8610536218,	0.5235039546,	0.3639283353,	0.2344357357,	0.1710872472,	0.1528565331},
    {0.1239008003,	0.3203729209,	0.6222340103,	0.7764399610,	0.2358156028,	0.4844462878,	0.8539040452,	0.5193752176,	0.3608425958,	0.2304530682,	0.1651787640,	0.1443204683},
    {0.1263709120,	0.3184659392,	0.6189754471,	0.7760060744,	0.2389884285,	0.4813355454,	0.8534336783,	0.5192259862,	0.3598664945,	0.2289874466,	0.1633674041,	0.1410279861},
    {0.1347692916,	0.3254582053,	0.6175356169,	0.7678707018,	0.2438409854,	0.4838241394,	0.8646284102,	0.5264388400,	0.3638968481,	0.2312814631,	0.1663863372,	0.1463325407},
    {0.1393142970,	0.3249284882,	0.6136708093,	0.7655927975,	0.2484135872,	0.4809207798,	0.8795860771,	0.5344475949,	0.3671400233,	0.2331612821,	0.1683270798,	0.1499298823},
    {0.1312123308,	0.3091429177,	0.6085935132,	0.7781755071,	0.2477603583,	0.4696184156,	0.8830667921,	0.5356911904,	0.3646840266,	0.2299114255,	0.1629792556,	0.1440156088},
    {0.1153048118,	0.2806441360,	0.6004092149,	0.8014969086,	0.2452407615,	0.4501244297,	0.8797742239,	0.5322091230,	0.3603702887,	0.2237303256,	0.1545693708,	0.1330406683},
    {0.1125382867,	0.2708973408,	0.5955592604,	0.8080052066,	0.2469204927,	0.4420364994,	0.8849482596,	0.5341491320,	0.3592997261,	0.2212451411,	0.1506447578,	0.1290165234},
    {0.1230115601,	0.2800084755,	0.5940436496,	0.7975919297,	0.2527995521,	0.4454583161,	0.9024459078,	0.5428543004,	0.3624484398,	0.2229019308,	0.1534049252,	0.1349917688},
    {0.1321015710,	0.2858353639,	0.5912397696,	0.7896735004,	0.2587719298,	0.4463915388,	0.9063969897,	0.5488733025,	0.3649674108,	0.2251640859,	0.1557338164,	0.1400524358},
    {0.1285446102,	0.2824451743,	0.5915428918,	0.7932530643,	0.2569988802,	0.4449398590,	0.8922859831,	0.5470327812,	0.3649044365,	0.2233798509,	0.1534911804,	0.1383452229},
    {0.1216282976,	0.2735459265,	0.5904819642,	0.8016053802,	0.2543859649,	0.4398589797,	0.8796801505,	0.5433019947,	0.3621965427,	0.2183776206,	0.1485315047,	0.1316383147},
    {0.1274577611,	0.2814916834,	0.5916944529,	0.7943377807,	0.2563456514,	0.4446287847,	0.8752587018,	0.5441973835,	0.3624169527,	0.2170075830,	0.1468926554,	0.1310285958},
    {0.1439581069,	0.3069181057,	0.5973022128,	0.7723180388,	0.2606382979,	0.4609083368,	0.8870178739,	0.5548923046,	0.3691237130,	0.2222647040,	0.1540087118,	0.1398695202},
    {0.1559134473,	0.3236571671,	0.6001060928,	0.7572404816,	0.2645576708,	0.4709664040,	0.8991533396,	0.5660846640,	0.3763342675,	0.2272669343,	0.1613835339,	0.1485885007},
    {0.1511708329,	0.3182540523,	0.5998029706,	0.7625555917,	0.2625046659,	0.4681667358,	0.8980244591,	0.5687210864,	0.3770584716,	0.2262473714,	0.1598740674,	0.1473080910},
    {0.1394131015,	0.2987604619,	0.5948014550,	0.7790432802,	0.2600783875,	0.4551016176,	0.8870178739,	0.5661344078,	0.3737208350,	0.2208628051,	0.1522836072,	0.1387110542},
    {0.1402035372,	0.2913444221,	0.5889663534,	0.7822974292,	0.2639977604,	0.4475321443,	0.8868297272,	0.5675272347,	0.3736578608,	0.2192378768,	0.1508603959,	0.1367599537},
    {0.1600632349,	0.3005615002,	0.5803273719,	0.7666775138,	0.2787420679,	0.4461841560,	0.9026340546,	0.5806098592,	0.3809628767,	0.2244949978,	0.1591408979,	0.1485885007},
    {0.1700424859,	0.2971713105,	0.5702485602,	0.7629894783,	0.2896603210,	0.4375777686,	0.9235183443,	0.5931950455,	0.3871343556,	0.2289555853,	0.1650062535,	0.1583440034},
    {0.1652998716,	0.2833986651,	0.5640345559,	0.7726434537,	0.2912467339,	0.4265864786,	0.9243650047,	0.5971248072,	0.3896533266,	0.2298795641,	0.1647043602,	0.1584659472},
    {0.1606560617,	0.2757707384,	0.5621400424,	0.7790432802,	0.2902202314,	0.4216092908,	0.9115710254,	0.5946376163,	0.3907238893,	0.2309628497,	0.1634536594,	0.1570635937},
    {0.1665843296,	0.2872126285,	0.5657775083,	0.7700401345,	0.2907801418,	0.4295935297,	0.9071495767,	0.5956822365,	0.3950061400,	0.2359650800,	0.1691465045,	0.1619413450},
    {0.1829858710,	0.3146519758,	0.5728250985,	0.7469356763,	0.2942329227,	0.4478432186,	0.9124176858,	0.6060289509,	0.4044522812,	0.2476581916,	0.1832061069,	0.1771843180},
    {0.1968184962,	0.3330861320,	0.5754016369,	0.7299056297,	0.2990854797,	0.4586271257,	0.9153339605,	0.6114510272,	0.4121666299,	0.2584273243,	0.1959718808,	0.1915736845},
    {0.1934591444,	0.3342515097,	0.5788117611,	0.7310988177,	0.2954460620,	0.4616341767,	0.9026340546,	0.6057802318,	0.4127019113,	0.2631428025,	0.2023116401,	0.1960246326},
    {0.1861476139,	0.3336158491,	0.5838890573,	0.7355461547,	0.2888204554,	0.4647449191,	0.8804327375,	0.5929463264,	0.4087975062,	0.2648633149,	0.2047699142,	0.1958417170},
    {0.1900009880,	0.3445280220,	0.5887390118,	0.7278446686,	0.2877006346,	0.4734549979,	0.8671683913,	0.5842909019,	0.4076324821,	0.2694194864,	0.2099452279,	0.1995000305},
    {0.2052168758,	0.3713317089,	0.5962412852,	0.7057164551,	0.2902202314,	0.4917046869,	0.8689557855,	0.5839426951,	0.4105922731,	0.2776715733,	0.2218915772,	0.2124260716},
    {0.2134176465,	0.3881767136,	0.6020763868,	0.6925913874,	0.2905935050,	0.5039402737,	0.8646284102,	0.5794160076,	0.4106237602,	0.2831198624,	0.2306033553,	0.2209621365},
    {0.2038336133,	0.3780061447,	0.6020763868,	0.7031131359,	0.2860209033,	0.4988593944,	0.8502351834,	0.5670795404,	0.4035706414,	0.2813356273,	0.2279725708,	0.2170599354},
    {0.1883213121,	0.3629621782,	0.6032888754,	0.7192754095,	0.2779955207,	0.4924305268,	0.8285042333,	0.5507138238,	0.3942504487,	0.2754412796,	0.2205977487,	0.2079141516},
    {0.1898033791,	0.3693187838,	0.6066989997,	0.7151534874,	0.2765957447,	0.4978224803,	0.8175917215,	0.5408148038,	0.3893069681,	0.2738800739,	0.2195195584,	0.2044997256},
    {0.2007706748,	0.3936857718,	0.6157168839,	0.6967133095,	0.2761291527,	0.5159684778,	0.8201317027,	0.5413122420,	0.3899996851,	0.2767794558,	0.2244792341,	0.2084628986},
    {0.2040312222,	0.4076703041,	0.6232191573,	0.6878186354,	0.2730496454,	0.5278929905,	0.8255879586,	0.5426553251,	0.3921093233,	0.2800930351,	0.2283607194,	0.2128528748},
    {0.1917794684,	0.3914609598,	0.6210215217,	0.7027877210,	0.2686636805,	0.5184570718,	0.8202257761,	0.5373327364,	0.3878270726,	0.2770980692,	0.2236166818,	0.2077922078},
    {0.1780456477,	0.3693187838,	0.6157168839,	0.7216617854,	0.2654908548,	0.5039402737,	0.8113828786,	0.5275829478,	0.3799238011,	0.2700248518,	0.2142579894,	0.1970001829},
    {0.1787372789,	0.3602076491,	0.6086692937,	0.7260006508,	0.2700634565,	0.4947117379,	0.8107243650,	0.5235039546,	0.3760193961,	0.2664563818,	0.2105058869,	0.1937077007},
    {0.1884201166,	0.3662464244,	0.6056380721,	0.7175398633,	0.2765024263,	0.4956449606,	0.8143932267,	0.5258916580,	0.3780660600,	0.2687822596,	0.2146892655,	0.1992561429},
    {0.1938543622,	0.3717554826,	0.6053349500,	0.7117908667,	0.2793019784,	0.4980298631,	0.8078080903,	0.5270855096,	0.3788847256,	0.2704390493,	0.2176219433,	0.2032802878},
    {0.1869380496,	0.3622205742,	0.6038193392,	0.7203601258,	0.2769690183,	0.4924305268,	0.7937911571,	0.5212654828,	0.3756415504,	0.2678901421,	0.2138698409,	0.1990732272},
    {0.1772552119,	0.3534272698,	0.6049560473,	0.7302310446,	0.2716498694,	0.4889050187,	0.7751646284,	0.5091777347,	0.3688718159,	0.2623781304,	0.2074438263,	0.1900493872},
    {0.1744886869,	0.3580887806,	0.6103364656,	0.7293632715,	0.2670772676,	0.4948154293,	0.7667920978,	0.5034074516,	0.3666992034,	0.2606894794,	0.2058912322,	0.1877934272},
    {0.1874320719,	0.3742981248,	0.6121551985,	0.7139602994,	0.2720231430,	0.5040439652,	0.7777986830,	0.5120131324,	0.3719260682,	0.2666156885,	0.2135248199,	0.1963294921},
    {0.1938543622,	0.3873291662,	0.6164746893,	0.7037639657,	0.2724897350,	0.5132725010,	0.7923800564,	0.5215142019,	0.3781290343,	0.2731791245,	0.2215034286,	0.2065727700},
    {0.1845667424,	0.3835152029,	0.6208699606,	0.7108146220,	0.2653975364,	0.5145167980,	0.7930385701,	0.5204198378,	0.3780975472,	0.2728605111,	0.2210290249,	0.2051094445},
    {0.1699436815,	0.3726030300,	0.6242800849,	0.7244820479,	0.2563456514,	0.5114060556,	0.7880526811,	0.5159428941,	0.3763342675,	0.2698974065,	0.2167162634,	0.1987073959},
    {0.1720185752,	0.3756753893,	0.6249621097,	0.7217702571,	0.2569055618,	0.5134798839,	0.7918156162,	0.5171367458,	0.3777511886,	0.2709169693,	0.2171044120,	0.1991341991},
    {0.1842703290,	0.3904015256,	0.6260230373,	0.7074520013,	0.2620380739,	0.5213604314,	0.8075258702,	0.5270855096,	0.3828835921,	0.2763015357,	0.2234872989,	0.2081580391},
    {0.1859500049,	0.3926263375,	0.6263261594,	0.7053910402,	0.2626913027,	0.5226047283,	0.8235183443,	0.5339004129,	0.3870713813,	0.2803160645,	0.2289645060,	0.2142552283},
    {0.1735994467,	0.3810785041,	0.6275386481,	0.7180822215,	0.2560656962,	0.5178349233,	0.8283160865,	0.5333034870,	0.3871028685,	0.2792327789,	0.2266787424,	0.2105359429},
    {0.1628297599,	0.3694247272,	0.6275386481,	0.7299056297,	0.2509331840,	0.5121318955,	0.8237064911,	0.5286275680,	0.3838282062,	0.2767794558,	0.2224522362,	0.2044997256},
    {0.1700424859,	0.3747218985,	0.6257199151,	0.7232888600,	0.2555057857,	0.5134798839,	0.8234242709,	0.5279311546,	0.3833873863,	0.2777352960,	0.2225384914,	0.2042558381},
    {0.1835786978,	0.3915669033,	0.6273870870,	0.7072350580,	0.2608249347,	0.5228121112,	0.8315145814,	0.5338506691,	0.3877955855,	0.2815586567,	0.2287488679,	0.2126089873},
    {0.1900009880,	0.3959105837,	0.6255683540,	0.7014860614,	0.2650242628,	0.5237453339,	0.8366886171,	0.5374819679,	0.3898107623,	0.2840757025,	0.2326734808,	0.2171209073},
    {0.1821954352,	0.3801250132,	0.6202637163,	0.7138518277,	0.2646509892,	0.5124429697,	0.8306679210,	0.5336516938,	0.3862842029,	0.2806028165,	0.2278431880,	0.2111456618},
    {0.1748839048,	0.3656107639,	0.6154895423,	0.7253498210,	0.2640910788,	0.5020738283,	0.8206961430,	0.5271352534,	0.3814351837,	0.2763652584,	0.2223228533,	0.2024266813},
    {0.1778480387,	0.3646572730,	0.6125341012,	0.7241566330,	0.2672639044,	0.4994815429,	0.8199435560,	0.5262896085,	0.3807109796,	0.2752182502,	0.2205977487,	0.2013901591},
    {0.1905938148,	0.3787477487,	0.6127614429,	0.7099468489,	0.2731429638,	0.5066362505,	0.8324553151,	0.5329055365,	0.3841745647,	0.2794239470,	0.2259024453,	0.2095603927},
    {0.1938543622,	0.3920966204,	0.6198848136,	0.7013775898,	0.2703434117,	0.5179386147,	0.8460018815,	0.5381783813,	0.3881104569,	0.2827375263,	0.2306464829,	0.2151698067},
    {0.1811085861,	0.3861637885,	0.6254167930,	0.7113569801,	0.2609182531,	0.5188718374,	0.8450611477,	0.5341491320,	0.3857804087,	0.2796151150,	0.2271531462,	0.2091335894},
    {0.1707341172,	0.3783239750,	0.6277659897,	0.7210109556,	0.2545726017,	0.5166943177,	0.8309501411,	0.5254439636,	0.3800497497,	0.2742624100,	0.2197783241,	0.1994390586},
    {0.1729078154,	0.3795952961,	0.6270081843,	0.7191669378,	0.2560656962,	0.5167980091,	0.8266227658,	0.5242501119,	0.3794514941,	0.2732747085,	0.2182688575,	0.1983415645},
    {0.1861476139,	0.3934738849,	0.6267808427,	0.7048486821,	0.2624113475,	0.5233305682,	0.8389463782,	0.5321593792,	0.3841430776,	0.2776715733,	0.2241773408,	0.2055362478},
    {0.1950400158,	0.3998304905,	0.6245074265,	0.6967133095,	0.2680104517,	0.5248859394,	0.8449670743,	0.5368850420,	0.3869769199,	0.2807939846,	0.2289645060,	0.2124260716},
    {0.1896057702,	0.3807606738,	0.6149590785,	0.7095129624,	0.2713699141,	0.5090211530,	0.8292568203,	0.5320598916,	0.3834503605,	0.2772573759,	0.2245223617,	0.2080360954},
    {0.1804169548,	0.3598898188,	0.6071536829,	0.7252413494,	0.2718365062,	0.4934674409,	0.8080903104,	0.5210665075,	0.3762083189,	0.2699292678,	0.2156812007,	0.1976099018},
    {0.1794289102,	0.3537451001,	0.6035162170,	0.7289293850,	0.2736095558,	0.4879717959,	0.7895578551,	0.5090285032,	0.3680216632,	0.2634614159,	0.2096864622,	0.1916346564},
    {0.1859500049,	0.3626443479,	0.6049560473,	0.7206855407,	0.2758491975,	0.4933637495,	0.7793979304,	0.5049495100,	0.3648729494,	0.2624737144,	0.2108077802,	0.1944393635},
    {0.1895069657,	0.3646572730,	0.6035919976,	0.7177568066,	0.2783687943,	0.4933637495,	0.7695202258,	0.5024125752,	0.3643376681,	0.2630153572,	0.2133954371,	0.1979147613},
    {0.1819978263,	0.3497192499,	0.5986662625,	0.7294717431,	0.2778088839,	0.4827872252,	0.7565380997,	0.4953986967,	0.3610315186,	0.2605620340,	0.2108940355,	0.1951100543},
    {0.1727102065,	0.3357347177,	0.5957866020,	0.7418375095,	0.2751959686,	0.4739734550,	0.7473189087,	0.4888822564,	0.3567492679,	0.2571847320,	0.2059343598,	0.1896835559},
    {0.1733030333,	0.3380654730,	0.5969990906,	0.7403189066,	0.2747293766,	0.4758399005,	0.7501411101,	0.4901755957,	0.3561195252,	0.2565475053,	0.2042523828,	0.1880373148},
    {0.1836775022,	0.3518381184,	0.5989693847,	0.7275192537,	0.2783687943,	0.4840315222,	0.7629350894,	0.4976869124,	0.3603702887,	0.2609443701,	0.2094276966,	0.1955978294},
    {0.1881237032,	0.3576650069,	0.5996514095,	0.7220956720,	0.2801418440,	0.4872459560,	0.7709313264,	0.5026612943,	0.3633930539,	0.2641623654,	0.2137404580,	0.2010243278},
    {0.1784408655,	0.3519440619,	0.6029857533,	0.7303395162,	0.2735162374,	0.4867274990,	0.7666039511,	0.4981346068,	0.3612834157,	0.2613904289,	0.2109802907,	0.1967562953},
    {0.1674735698,	0.3448458523,	0.6062443165,	0.7399934917,	0.2663307204,	0.4855868934,	0.7632173095,	0.4918171417,	0.3580087534,	0.2566430893,	0.2055893389,	0.1890738370},
    {0.1665843296,	0.3500370802,	0.6107153683,	0.7378240590,	0.2631578947,	0.4910825384,	0.7678269050,	0.4926130428,	0.3589218804,	0.2567386733,	0.2049855522,	0.1877324553},
    {0.1749827092,	0.3655048204,	0.6154137617,	0.7252413494,	0.2641843972,	0.5019701369,	0.7835371590,	0.5004725663,	0.3630466954,	0.2609125088,	0.2111096735,	0.1958417170},
    {0.1768599941,	0.3692128403,	0.6164746893,	0.7223126153,	0.2644643524,	0.5044587308,	0.7943555974,	0.5048500224,	0.3651563336,	0.2636525840,	0.2150342865,	0.2010243278},
    {0.1654974805,	0.3546985910,	0.6148832980,	0.7359800412,	0.2600783875,	0.4962671091,	0.7920978363,	0.5005223101,	0.3617872099,	0.2600203913,	0.2096433346,	0.1933418694},
    {0.1513684419,	0.3417734930,	0.6164746893,	0.7504067686,	0.2523329601,	0.4910825384,	0.7893697084,	0.4965428046,	0.3582291634,	0.2562288919,	0.2027860439,	0.1841351137},
    {0.1558146428,	0.3467528340,	0.6166262504,	0.7454170734,	0.2543859649,	0.4935711323,	0.7895578551,	0.4968412675,	0.3579142920,	0.2557509718,	0.2030448096,	0.1840741418},
    {0.1703388993,	0.3676236890,	0.6204152774,	0.7267599523,	0.2589585666,	0.5063251763,	0.8000940734,	0.5042530966,	0.3627318240,	0.2607532021,	0.2099452279,	0.1936467289},
    {0.1749827092,	0.3819260515,	0.6270081843,	0.7168890335,	0.2569988802,	0.5179386147,	0.8110065851,	0.5107197931,	0.3672029976,	0.2651819282,	0.2154655626,	0.2010852997},
    {0.1639166090,	0.3667761415,	0.6247347681,	0.7306649311,	0.2531728257,	0.5089174616,	0.8043273754,	0.5053474606,	0.3642432067,	0.2612948448,	0.2105921421,	0.1944393635},
    {0.1536409446,	0.3483419854,	0.6194301303,	0.7458509600,	0.2515864128,	0.4962671091,	0.7917215428,	0.4982340944,	0.3594256746,	0.2561014465,	0.2044680209,	0.1848058045},
    {0.1536409446,	0.3518381184,	0.6219308881,	0.7440069422,	0.2500933184,	0.4996889258,	0.7938852305,	0.4974381933,	0.3592682389,	0.2556235264,	0.2039504895,	0.1839521980},
    {0.1644106314,	0.3696366140,	0.6264019400,	0.7289293850,	0.2524262785,	0.5115097470,	0.8078080903,	0.5026612943,	0.3621650556,	0.2588733830,	0.2077025920,	0.1895006402},
    {0.1711293350,	0.3799131264,	0.6285995756,	0.7200347109,	0.2542926465,	0.5180423061,	0.8172154280,	0.5063423370,	0.3645265909,	0.2605938954,	0.2107646526,	0.1938906164},
    {0.1616441063,	0.3717554826,	0.6300394059,	0.7294717431,	0.2488801792,	0.5150352551,	0.8102539981,	0.5027607820,	0.3618501842,	0.2575352068,	0.2058481045,	0.1880373148},
    {0.1496887659,	0.3673058587,	0.6360260685,	0.7382579455,	0.2395483389,	0.5169017005,	0.7980244591,	0.4952992091,	0.3578198306,	0.2539348754,	0.2005002803,	0.1799890251},
    {0.1542337714,	0.3797012395,	0.6414064868,	0.7293632715,	0.2384285181,	0.5266486935,	0.7962370649,	0.4945033080,	0.3580402406,	0.2546995476,	0.2019234916,	0.1813304067},
    {0.1690544413,	0.4011018116,	0.6453470749,	0.7102722638,	0.2430011198,	0.5398175031,	0.8026340546,	0.5004725663,	0.3631726440,	0.2600203913,	0.2083063786,	0.1898054997},
    {0.1742910780,	0.4019493590,	0.6419369506,	0.7070181148,	0.2474804031,	0.5379510577,	0.8036688617,	0.5040541213,	0.3657545893,	0.2621551010,	0.2112390564,	0.1937077007},
    {0.1675723743,	0.3794893527,	0.6310245529,	0.7222041436,	0.2511198208,	0.5193902945,	0.7929444967,	0.5001741034,	0.3616927485,	0.2582361562,	0.2057187217,	0.1874885678},
    {0.1630273688,	0.3655048204,	0.6245074265,	0.7318581191,	0.2529861889,	0.5080879303,	0.7710253998,	0.4896284137,	0.3558361409,	0.2532339260,	0.1999827490,	0.1804768002},
    {0.1668807430,	0.3706960483,	0.6253410124,	0.7270853672,	0.2542926465,	0.5111986727,	0.7699905927,	0.4877381485,	0.3554582953,	0.2528515899,	0.1998964937,	0.1814523505},
    {0.1795277147,	0.3828795423,	0.6242800849,	0.7139602994,	0.2609182531,	0.5164869349,	0.7843838194,	0.4958463911,	0.3605277244,	0.2584591856,	0.2067969121,	0.1914517407},
    {0.1856535915,	0.3896599216,	0.6244316460,	0.7071265864,	0.2637178052,	0.5199087516,	0.7901222954,	0.5005720539,	0.3637708996,	0.2616453196,	0.2110665459,	0.1973050424},
    {0.1736982512,	0.3786418053,	0.6257199151,	0.7192754095,	0.2571855170,	0.5154500207,	0.7788334901,	0.4952992091,	0.3600239302,	0.2578856815,	0.2066244016,	0.1917566002},
    {0.1589763857,	0.3653988770,	0.6274628675,	0.7341360234,	0.2491601344,	0.5101617586,	0.7655691439,	0.4871909665,	0.3546711168,	0.2534569553,	0.2013628326,	0.1839521980},
    {0.1632249778,	0.3678355758,	0.6260230373,	0.7305564595,	0.2520530049,	0.5103691414,	0.7673565381,	0.4888325126,	0.3553638339,	0.2546995476,	0.2024410230,	0.1852935797},
    {0.1756743405,	0.3811844475,	0.6260230373,	0.7168890335,	0.2579320642,	0.5167980091,	0.7815616181,	0.4965925484,	0.3606536730,	0.2596061938,	0.2088670376,	0.1941954759},
    {0.1760695583,	0.3845746371,	0.6281448924,	0.7149365441,	0.2568122434,	0.5199087516,	0.7934148636,	0.5010694921,	0.3629837211,	0.2619639330,	0.2123603743,	0.1982805926},
    {0.1635213912,	0.3662464244,	0.6246589876,	0.7312072893,	0.2530795073,	0.5086063874,	0.7915333960,	0.4980351191,	0.3598035203,	0.2588415217,	0.2070125501,	0.1912078532},
    {0.1540361624,	0.3428329272,	0.6151864201,	0.7484542792,	0.2544792833,	0.4906677727,	0.7836312324,	0.4932597125,	0.3560250638,	0.2543172115,	0.2002415146,	0.1816962380},
    {0.1598656259,	0.3429388706,	0.6107153683,	0.7450916585,	0.2599850691,	0.4876607217,	0.7893697084,	0.4956971596,	0.3568752165,	0.2546995476,	0.2012765774,	0.1824279007},
    {0.1713269440,	0.3597838754,	0.6139739315,	0.7302310446,	0.2633445315,	0.4981335545,	0.8037629351,	0.5033079640,	0.3616927485,	0.2595106098,	0.2073144434,	0.1907200780},
    {0.1721173797,	0.3645513296,	0.6168535920,	0.7273023104,	0.2619447555,	0.5024885939,	0.8110065851,	0.5064915684,	0.3643691552,	0.2624099917,	0.2104627593,	0.1954149137},
    {0.1623357376,	0.3558639686,	0.6181418612,	0.7371732292,	0.2565322882,	0.4990667773,	0.8033866416,	0.5018653932,	0.3620076199,	0.2597336392,	0.2067106568,	0.1909639656},
    {0.1510720285,	0.3429388706,	0.6175356169,	0.7499728821,	0.2515864128,	0.4923268353,	0.7912511759,	0.4952494653,	0.3569696779,	0.2550181610,	0.1999396213,	0.1820620694},
    {0.1524552910,	0.3430448141,	0.6165504698,	0.7492135806,	0.2527995521,	0.4917046869,	0.7963311383,	0.4968412675,	0.3575679335,	0.2546676862,	0.1993789623,	0.1817572099},
    {0.1612488884,	0.3561817989,	0.6192027887,	0.7376071157,	0.2553191489,	0.5000000000,	0.8108184384,	0.5046013033,	0.3626688498,	0.2593194418,	0.2054599560,	0.1887689775},
    {0.1662879162,	0.3594660451,	0.6176871779,	0.7331597787,	0.2586786114,	0.5005184571,	0.8193791157,	0.5094761976,	0.3650933594,	0.2620913783,	0.2088670376,	0.1929150662},
    {0.1560122518,	0.3478122682,	0.6172324947,	0.7447662436,	0.2541060097,	0.4945043550,	0.8161806209,	0.5051982291,	0.3621020813,	0.2593194418,	0.2047699142,	0.1873056521},
    {0.1486019168,	0.3389130204,	0.6165504698,	0.7534439744,	0.2510265024,	0.4897345500,	0.8095954845,	0.4997761528,	0.3594571617,	0.2558465558,	0.2001121318,	0.1796841656},
    {0.1531469222,	0.3517321750,	0.6222340103,	0.7443323571,	0.2497200448,	0.4997926172,	0.8137347131,	0.5012684674,	0.3622910041,	0.2574077614,	0.2034760857,	0.1820620694},
    {0.1654974805,	0.3797012395,	0.6326917248,	0.7231803883,	0.2490668160,	0.5207382829,	0.8251175917,	0.5088295279,	0.3669196133,	0.2619957943,	0.2098589727,	0.1918785440},
    {0.1635213912,	0.3951689798,	0.6453470749,	0.7163466753,	0.2403882046,	0.5369141435,	0.8234242709,	0.5049992538,	0.3649359237,	0.2614541515,	0.2099883555,	0.1915736845},
    {0.1423772355,	0.4109545503,	0.6728554107,	0.7199262393,	0.2134191863,	0.5634591456,	0.8089369708,	0.4873899418,	0.3568752165,	0.2554642197,	0.2025272782,	0.1788915310},
    {0.1088825215,	0.4383938977,	0.7181721734,	0.7242651047,	0.1697461739,	0.6079427623,	0.7956726246,	0.4596826344,	0.3431153374,	0.2467979354,	0.1912709708,	0.1593805256},
    {0.0952475052,	0.4586290921,	0.7430281904,	0.7214448422,	0.1480029862,	0.6347988387,	0.8040451552,	0.4487887380,	0.3403759564,	0.2480086663,	0.1888989520,	0.1527345894},
    {0.1259756941,	0.4779107956,	0.7333282813,	0.6946523484,	0.1684397163,	0.6375985068,	0.8381937912,	0.4864945531,	0.3765231903,	0.2886000127,	0.2284469746,	0.1868788489},
    {0.2037348088,	0.4969806124,	0.6873294938,	0.6421520772,	0.2334826428,	0.6155122356,	0.8856067733,	0.5738446998,	0.4642463554,	0.3857452367,	0.3240608962,	0.2739467106},
    {0.3145934196,	0.4865981566,	0.5948772355,	0.5866146003,	0.3427584920,	0.5471795935,	0.8967074318,	0.6747749092,	0.5834566580,	0.5235136685,	0.4552550998,	0.3941832815},
    {0.4662582749,	0.4822544761,	0.4754471052,	0.5056947608,	0.4879619261,	0.4632932393,	0.8465663217,	0.7863502960,	0.7333354325,	0.6904989486,	0.6125415103,	0.5449057984},
    {0.6416362020,	0.5213476004,	0.3688996666,	0.3893046968,	0.6363381859,	0.4095810867,	0.7767638758,	0.8994179973,	0.8819547215,	0.8532785318,	0.7714236426,	0.7089811597},
    {0.8111846655,	0.5878800720,	0.2864504395,	0.2622844126,	0.7671705860,	0.3856283700,	0.6801505174,	0.9761727105,	0.9711577820,	0.9507742305,	0.8887307543,	0.8517163588},
    {0.9506965715,	0.6062082848,	0.1924825705,	0.1762664063,	0.8909107876,	0.3303608461,	0.5337723424,	0.9950753619,	1.0000000000,	0.9745746511,	0.9480312244,	0.9564660691},
    {0.9564272305,	0.5239961860,	0.1293573810,	0.2152077232,	0.9324374767,	0.2469929490,	0.4250235183,	0.9231955430,	0.9416228471,	0.8968011215,	0.8898520723,	0.9325041156},
    {0.8122715147,	0.3777942579,	0.1352682631,	0.3692374444,	0.8607689436,	0.1793861468,	0.2969896519,	0.6725364373,	0.7050284959,	0.6803670426,	0.6954759132,	0.7661727943},
    {0.5949016896,	0.3282127344,	0.2666717187,	0.5138301334,	0.6772116461,	0.2450228121,	0.1825964252,	0.3525841914,	0.3732170408,	0.3802332250,	0.4223056023,	0.5175294189},
    {0.4091492935,	0.3779002013,	0.4446044256,	0.5904111075,	0.4799365435,	0.3911240149,	0.1440263405,	0.1549022534,	0.1374413552,	0.1419422673,	0.1898908871,	0.2925431376},
    {0.3518427033,	0.3890242610,	0.4965140952,	0.6161188849,	0.4209593132,	0.4320821236,	0.2313264346,	0.1946475650,	0.1362763311,	0.1170266998,	0.1480571010,	0.2360831657},
    {0.3177551625,	0.3805487869,	0.5165959382,	0.6392233431,	0.3924038820,	0.4416217337,	0.4084666040,	0.3305974233,	0.2383891180,	0.1862932518,	0.1882520378,	0.2443143711},
    {0.2606461812,	0.3818201081,	0.5613064565,	0.6699208157,	0.3379992535,	0.4728328494,	0.5647224835,	0.4310799383,	0.3135489153,	0.2352004078,	0.2107215250,	0.2315102738},
    {0.2276454896,	0.3770526539,	0.5832828130,	0.6904219547,	0.3088839119,	0.4855868934,	0.6742238946,	0.4917176541,	0.3564029094,	0.2589371057,	0.2165437530,	0.2146210597},
    {0.2216184172,	0.3589363280,	0.5748711731,	0.7031131359,	0.3111235536,	0.4709664040,	0.7364063970,	0.5166393076,	0.3725243238,	0.2668068566,	0.2202958554,	0.2133406500},
    {0.2082798142,	0.3465409471,	0.5762352228,	0.7166720902,	0.3040313550,	0.4657818333,	0.7706491063,	0.5183305974,	0.3723668881,	0.2630472185,	0.2161124768,	0.2084019267},
    {0.1797253236,	0.3233393368,	0.5814640800,	0.7443323571,	0.2873273610,	0.4581086686,	0.7841956726,	0.5083320897,	0.3649988980,	0.2528515899,	0.2032604477,	0.1916346564},
    {0.1569014919,	0.3056467846,	0.5864655956,	0.7658097408,	0.2734229190,	0.4528204065,	0.7868297272,	0.5015669303,	0.3586070090,	0.2441215829,	0.1905378014,	0.1740747515},
    {0.1540361624,	0.3078715966,	0.5901788421,	0.7663520989,	0.2697835013,	0.4564496060,	0.7984948260,	0.5032582202,	0.3572530621,	0.2413815077,	0.1860956570,	0.1679775623},
    {0.1586799723,	0.3176183918,	0.5936647469,	0.7587590845,	0.2698768197,	0.4636043136,	0.8181561618,	0.5105705616,	0.3604332630,	0.2442490282,	0.1877345064,	0.1707212975},
    {0.1535421401,	0.3123212205,	0.5936647469,	0.7642911379,	0.2674505412,	0.4610120282,	0.8294449671,	0.5139531413,	0.3605277244,	0.2441534442,	0.1863112951,	0.1684043656},
    {0.1394131015,	0.2955821591,	0.5926795999,	0.7805618831,	0.2613848451,	0.4521982580,	0.8269049859,	0.5094761976,	0.3566233194,	0.2395335500,	0.1797127701,	0.1592585818},
    {0.1304218951,	0.2851997034,	0.5920733556,	0.7908666884,	0.2575587906,	0.4465989216,	0.8200376294,	0.5043028404,	0.3535375799,	0.2353278532,	0.1737611593,	0.1517590391},
    {0.1377334256,	0.2966415934,	0.5946498939,	0.7809957696,	0.2594251586,	0.4539610120,	0.8289746002,	0.5101228672,	0.3564973708,	0.2367616135,	0.1758312848,	0.1536491677},
    {0.1494911570,	0.3129568810,	0.5973779933,	0.7661351557,	0.2632512131,	0.4639153878,	0.8472248354,	0.5184798289,	0.3611889543,	0.2406168355,	0.1815672575,	0.1598683007},
    {0.1471198498,	0.3157114101,	0.6010154592,	0.7661351557,	0.2598917507,	0.4676482787,	0.8558795861,	0.5209172760,	0.3626688498,	0.2415726757,	0.1820847889,	0.1605999634},
    {0.1325955933,	0.3042695201,	0.6040466808,	0.7799110533,	0.2511198208,	0.4641227706,	0.8480714958,	0.5139531413,	0.3580717277,	0.2366023068,	0.1743218183,	0.1516370953},
    {0.1215294931,	0.2975950842,	0.6077599273,	0.7894565571,	0.2436543486,	0.4635006221,	0.8406396990,	0.5074864448,	0.3547026040,	0.2323328873,	0.1684133351,	0.1424913115},
    {0.1270625432,	0.3116855599,	0.6135192483,	0.7791517518,	0.2427211646,	0.4742845292,	0.8413922860,	0.5067900313,	0.3560250638,	0.2335436182,	0.1701384396,	0.1455399061},
    {0.1369429898,	0.3339336794,	0.6219308881,	0.7623386484,	0.2422545726,	0.4908751555,	0.8342427093,	0.5085808088,	0.3587329576,	0.2374625629,	0.1765644542,	0.1542588867},
    {0.1371405988,	0.3328742452,	0.6210215217,	0.7627725350,	0.2428144830,	0.4898382414,	0.8276575729,	0.5075361886,	0.3581976762,	0.2378767603,	0.1774270065,	0.1562099872},
    {0.1269637388,	0.3159232970,	0.6167020309,	0.7769823191,	0.2407614782,	0.4785358772,	0.8173095014,	0.5027110382,	0.3542302969,	0.2332887275,	0.1711303748,	0.1481616975},
    {0.1176761190,	0.3028922555,	0.6145043953,	0.7888057273,	0.2376819709,	0.4706553297,	0.8081843838,	0.4975874248,	0.3509871218,	0.2286688332,	0.1655237849,	0.1396256326},
    {0.1205414485,	0.3074478229,	0.6156411034,	0.7849007485,	0.2383351997,	0.4736623808,	0.8150517404,	0.5014674427,	0.3531912214,	0.2302619002,	0.1676370380,	0.1414547893},
    {0.1310147219,	0.3238690539,	0.6192027887,	0.7707994359,	0.2410414334,	0.4841352136,	0.8319849483,	0.5109685122,	0.3587329576,	0.2356146052,	0.1742355630,	0.1502347418},
    {0.1285446102,	0.3224917894,	0.6201879357,	0.7727519254,	0.2393617021,	0.4841352136,	0.8428033866,	0.5166890514,	0.3619446456,	0.2382272351,	0.1773838789,	0.1531613926},
    {0.1181701413,	0.3107320691,	0.6197332525,	0.7845753336,	0.2346957820,	0.4780174202,	0.8404515522,	0.5149977615,	0.3603388016,	0.2359332186,	0.1737180317,	0.1475519785},
    {0.1171820966,	0.3033160292,	0.6151106396,	0.7889141989,	0.2370287421,	0.4712774782,	0.8365004704,	0.5127095458,	0.3583551119,	0.2336073409,	0.1693190150,	0.1435888056},
