Lead I,Lead II,Lead III,aVR,aVL,aVF,V1,V2,V3,V4,V5,V6
0.08826562177768613,0.8273922988943957,0.9364009971030115,0.5174578698094504,0.05671768707482993,0.9323396567299007,0.6501260806916427,0.3920259442960703,0.2636288419697852,0.17643610785463076,0.09811904568031918,0.040234702430846606
0.09651474530831099,0.8409264201296226,0.9405780502593815,0.5052318537283842,0.0574829931972789,0.941553748870822,0.6633645533141211,0.3986550934757726,0.2689915116599761,0.1810328870241254,0.10434818011562573,0.04706023230750808
0.08754382346875644,0.836160884483416,0.943070807788183,0.5127216653816499,0.05229591836734694,0.9410117434507678,0.6629142651296831,0.3980827928271652,0.2690527993135783,0.18001480841611653,0.10255679504926307,0.04400670578373848
0.06527118993606928,0.8193861990087685,0.9457656807922925,0.5343099460292983,0.04132653061224492,0.9347786811201445,0.6572406340057637,0.3921690194582221,0.26372077345018846,0.1750169679768002,0.09596124094129141,0.03514549155789726
0.06413693545060836,0.8115707205489896,0.9409822812099979,0.5394867276131732,0.043877551020408155,0.9279132791327913,0.654178674351585,0.3873998473864938,0.2607176784236816,0.17187017955204545,0.0919306245419754,0.03095437672135074
0.08125386677665498,0.8172893633244377,0.9338408677491074,0.5269302786650512,0.05544217687074831,0.9258355916892502,0.6579610951008646,0.38968904998092335,0.26200471914932744,0.1738446350342445,0.09482126862633333,0.03640282600886122
0.08816250773355332,0.8221502096835683,0.9327629185474634,0.5205419099019716,0.059013605442176875,0.9273712737127372,0.6660662824207493,0.39283670354826405,0.26326111604817215,0.1757573887826248,0.09828189886817032,0.04143216381271704
0.08156320890905341,0.8117613419748378,0.92973118641784,0.5300143187575723,0.05824829931972791,0.9205058717253839,0.6602125360230547,0.39069057611598634,0.2605951031164772,0.1734435737644228,0.0960833808321798,0.03957609867081787
0.07372654155495978,0.7932710636675562,0.9217813110557165,0.5448837977750853,0.05994897959183675,0.9064137308039747,0.6422910662824208,0.381390690576116,0.2545889130634634,0.16813722465601286,0.08924354694243138,0.0325110765177823
0.06960197978964736,0.7810712924132672,0.9158525904466751,0.554135918052649,0.062074829931972796,0.8966576332429992,0.6287824207492796,0.3749523082792828,0.2505132840989183,0.16403405935706797,0.08590505659148277,0.028020596335768175
0.08331614765931118,0.7856462066336255,0.9101933571380448,0.544112787751955,0.07125850340136056,0.8949412827461607,0.6327449567723343,0.37867226249523084,0.2532405846842154,0.16634787437527,0.09001709958472434,0.03394803017602683
0.09548360486698287,0.7904117422798321,0.9055447012059556,0.5348606674743914,0.07925170068027211,0.8941282746160796,0.6403097982708934,0.3864460129721481,0.2572549259951583,0.1705127414080336,0.09490269522025892,0.042689498263681
0.08785316560115487,0.7823103316812808,0.9048709829549282,0.5436722105958806,0.07653061224489796,0.889792231255646,0.6327449567723343,0.38367989317054557,0.25547758404069504,0.16884679459492813,0.09294845696604509,0.04041432163812717
0.07919158589399876,0.7769729317575296,0.9066900222327022,0.5513823108271836,0.0717687074829932,0.8885275519421861,0.6186059077809799,0.37657382678367035,0.25176968099776303,0.16499043623125811,0.08724859539125478,0.03143336127409891
0.08331614765931118,0.7848837209302325,0.9095870107121201,0.5445533649080294,0.07168367346938774,0.8942186088527552,0.6135626801152738,0.3754292254864556,0.2506665032329238,0.16455852409452706,0.08594576988844557,0.028798946233983956
0.0957929469993813,0.7984178421654594,0.9110691908643805,0.530124463046591,0.0758503401360544,0.9016260162601626,0.6276116714697406,0.38339374284624195,0.2555388716942972,0.16989572406984638,0.0922970442146405,0.03801939887438631
0.10558878119199834,0.7998475028593213,0.9056120730310583,0.5240665271505672,0.08333333333333331,0.8986449864498646,0.6392291066282422,0.390309042350248,0.2604725278092729,0.17473931017461594,0.09775262600765408,0.04640162854747935
0.1012579913384203,0.791650781547846,0.9026477127265378,0.5311157616477585,0.08341836734693878,0.8927732610659439,0.6402197406340058,0.3890213658908814,0.26001287040725646,0.1747701610415253,0.09734549303802621,0.04664112082385344
0.09053413074860797,0.7844071673656119,0.9045341238294146,0.5410287476594338,0.07780612244897958,0.8906052393857272,0.6303134005763689,0.38248760015261357,0.2559678852695125,0.17072869747639913,0.09152349157234753,0.039516225601724346
0.08744070942462363,0.7904117422798321,0.9108670753890723,0.5391562947461174,0.07253401360544218,0.8976513098464318,0.6274315561959655,0.3793399465852728,0.25428247479545246,0.168661689393472,0.08867356078495234,0.03568434917973896
0.09682408744070942,0.8044224170796798,0.9145725257697231,0.5260491243529023,0.07406462585034015,0.9068654019873531,0.6353566282420751,0.3833460511255246,0.2559372414427114,0.1700499784043932,0.09225633091767771,0.039516225601724346
0.1032171581769437,0.8131910026687,0.9165936805228053,0.517568014098469,0.07542517006802722,0.9122854561878952,0.6434618155619597,0.38873521556657764,0.2600435142340576,0.17393718763497257,0.09738620633498901,0.04580289785654412
0.09692720148484224,0.8037552420892109,0.9140335511689011,0.5264897015089767,0.07440476190476193,0.9061427280939476,0.6422910662824208,0.3859214040442579,0.2582048846259921,0.1722095390880484,0.09518768829899844,0.044485690336486645
0.08465663023303772,0.7904117422798321,0.9126187428417435,0.5406983147923781,0.07032312925170067,0.898825654923216,0.6283321325648416,0.3786245707745136,0.25195354395856956,0.16665638304436356,0.08765572836088265,0.033768410968746256
0.08506908640956898,0.7901258101410598,0.9121471400660243,0.5406983147923781,0.07074829931972791,0.8983739837398373,0.6143731988472623,0.3725200305227013,0.24895044893206264,0.16320108595051525,0.08403224493119452,0.029337803855825653
0.0995050525881625,0.8097598170034311,0.9165936805228053,0.5216433527921577,0.07389455782312924,0.9106594399277326,0.6202269452449568,0.3764307516215185,0.25235191370698373,0.1676436107854631,0.09070922563309176,0.03915698718716321
0.10899154464838111,0.8192908882958445,0.9172000269487299,0.5109593567573522,0.07746598639455785,0.9156278229448961,0.6267110951008645,0.3791968714231209,0.2554162963870928,0.17140741654840502,0.09612409412914255,0.046820740031134
0.10053619302949061,0.813953488372093,0.9188843225762986,0.5185593126996365,0.07287414965986395,0.9142728093947606,0.6250900576368876,0.37633536818008395,0.254466337756259,0.16983402233602768,0.09396628939011481,0.04322835588552269
0.08445040214477212,0.8062333206252383,0.924004581284107,0.5316664830928516,0.06301020408163267,0.9140018066847335,0.6196865994236311,0.3732354063334605,0.2520148316121717,0.1661010674399951,0.08810357462747334,0.03310980720871752
0.07919158589399876,0.8094738848646588,0.92973118641784,0.5325476374050006,0.057227891156462575,0.9194218608852754,0.6226585014409223,0.37423693246852346,0.25232126988018266,0.16588511137162956,0.08676003582770132,0.030475392168602566
0.08764693751288927,0.8277735417460922,0.9370747153540389,0.5174578698094504,0.05612244897959183,0.9329719963866305,0.6405799711815562,0.38344143456695917,0.257837158704379,0.17094465354476465,0.09282631707515675,0.03610346066339361
0.09486492060218601,0.839782691574533,0.9408475375597924,0.5067738737746448,0.056632653061224475,0.9411924119241192,0.6621037463976945,0.39359977107974053,0.2647013759078234,0.17702227432590859,0.09978829085579351,0.043587594300083826
0.08805939368942049,0.8249142203583683,0.9347840733005456,0.518999889855711,0.05765306122448981,0.9300813008130081,0.6694884726224783,0.3954120564669973,0.2656819783654583,0.1769297217251805,0.09917759140135167,0.04274937133277452
0.07805733140853785,0.8036599313762867,0.9262952233376003,0.5365128318096706,0.05892857142857143,0.9143631436314363,0.6644452449567724,0.3918351774132011,0.2619740753225263,0.17248719689023265,0.0936812963113753,0.034427014728775
0.07537636626108475,0.7977506671749904,0.9238698376339014,0.5413591805264897,0.05935374149659865,0.9098464317976512,0.6576909221902019,0.38830599008012207,0.26133055495970337,0.171746776084408,0.09258203729338002,0.03394803017602683
0.08465663023303772,0.7989897064430043,0.9186822071009902,0.5357418217865403,0.06641156462585034,0.9070460704607046,0.6656159942363112,0.39483975581839,0.2641804308522049,0.17495526624298147,0.09644980050484486,0.04089330619087535
0.09352443802845949,0.8029927563858177,0.9157178467964697,0.528692587289349,0.07193877551020407,0.9068654019873531,0.6720100864553314,0.40018122853872573,0.2657739098458616,0.1772690812611835,0.09995114404364464,0.047718836067536824
0.08816250773355332,0.7976553564620664,0.9154483594960587,0.5346403788963542,0.0699829931972789,0.9041553748870823,0.6612932276657061,0.39431514689049985,0.26252566420494594,0.17510952057752827,0.09746763292891455,0.044066578852832
0.07496391008455351,0.7820243995425086,0.91302297379236,0.550721445093072,0.06607142857142859,0.8951219512195123,0.6461635446685879,0.3844906524227394,0.25615174823031905,0.1694946628000247,0.09038351925738945,0.033888157106933305
0.07362342751082697,0.776496378192909,0.9099912416627366,0.554686639497742,0.06743197278911567,0.8905149051490514,0.6385086455331412,0.38038916444105303,0.25406796800784487,0.16782871598691926,0.08765572836088265,0.031493234343192435
0.08929676221901423,0.7868852459016393,0.9070942531833187,0.5402577376363035,0.07568027210884354,0.8934959349593496,0.6405799711815562,0.3857783288821061,0.25768393957037355,0.17187017955204545,0.09201205113590098,0.03897736797988265
0.10105176325015466,0.7935569958063285,0.9041298928787981,0.530124463046591,0.08239795918367349,0.8946702800361337,0.644542507204611,0.3911198016024418,0.2607789660772838,0.17514037144443761,0.09710121325624949,0.04634175547838583
0.09455557846978759,0.7859321387723981,0.9029845718520515,0.5379447075669126,0.08044217687074831,0.8903342366757001,0.6351765129682998,0.388115223197253,0.25949192535163795,0.1735361263651509,0.09616480742610535,0.04454556340558017
0.08599711280676427,0.7723980175371711,0.8990096341709897,0.550391012226016,0.07942176870748298,0.8812104787714543,0.6173451008645533,0.3789107210988173,0.2535163791254252,0.16782871598691926,0.0899356729907988,0.03508561848880374
0.08775005155702206,0.7741136103698055,0.8990770059960924,0.548408415023681,0.08010204081632653,0.8821138211382114,0.6159041786743515,0.37647844334223585,0.2511874482885423,0.1659468131054483,0.08737073528214312,0.03352891869237217
0.0957929469993813,0.7964163171940526,0.909654382537223,0.5313360502257958,0.07678571428571429,0.8997289972899729,0.6216678674351586,0.37805227012590614,0.2538534612202372,0.16869254026038136,0.09160491816627307,0.03903724104897618
0.09538049082285008,0.8314906595501335,0.9346493296503402,0.5111796453353894,0.06079931972789114,0.9330623306233062,0.6279719020172911,0.3774799694772987,0.25765329574357243,0.17393718763497257,0.09791547919550525,0.042928990540055084
0.07300474324603012,0.8652306519252764,0.9731860136091086,0.5036898336821235,0.027210884353741492,0.9749774164408311,0.6238292507204611,0.365747806180847,0.2565194741519321,0.17643610785463076,0.09832261216513312,0.03658244521614178
0.04805114456588988,0.8800991231414411,1.0,0.5084260381099239,0.0,1.0,0.6174351585014409,0.34848340328119043,0.2516164618637576,0.1765595113222682,0.09490269522025892,0.024847323673811525
0.05918746133223346,0.8770491803278687,0.9905005726605134,0.5042405551272165,0.01062925170068028,0.9921409214092141,0.6404899135446687,0.36722624952308286,0.2738332362945485,0.20219658172394647,0.1170914420649784,0.039396479463537304
0.13776036296143535,0.8883911551658407,0.9471804891194502,0.4556669236700077,0.07032312925170067,0.9684733514001806,0.7015489913544669,0.4488744753910721,0.35090246069929215,0.28546307151230954,0.1989251689601824,0.11950664591066937
0.25531037327283973,0.8848646587876476,0.8678838509735228,0.3949774204207511,0.16887755102040813,0.9136404697380307,0.7585554755043228,0.5623330789774895,0.46780865994545406,0.4160856420065404,0.32297858480579755,0.2430247874506047
0.40266034233862646,0.8602744948532215,0.754227582025197,0.3305430113448618,0.30136054421768704,0.8257452574525745,0.744956772334294,0.6695440671499429,0.6036527441546902,0.5689208366755106,0.4644165784545233,0.38731888396599207
0.5614559703031553,0.8562714449104079,0.6477127265377618,0.24804493886991955,0.4340136054421768,0.7524841915085818,0.6757024495677234,0.7690766882869134,0.7425612110440353,0.7202751897328316,0.6034932008794072,0.5338881571069334
0.7210765106207465,0.9009721692718262,0.5749511554268005,0.1369093512501376,0.5457482993197278,0.7249322493224933,0.5837536023054756,0.8347004959938954,0.8270768853614441,0.8119948170543594,0.7058871427408191,0.6605795713088253
0.8718292431429161,0.9351887152115897,0.5006400323384761,0.036678048243198584,0.65484693877551,0.6913279132791328,0.4805475504322767,0.8633632201449829,0.8554837128060554,0.8335287221570926,0.761623646282876,0.763142138666028
0.9383378016085792,0.8936332443766679,0.42781108940241186,0.025112897896243973,0.7282312925170068,0.6227642276422765,0.3865273775216138,0.8364650896604349,0.8331750068948612,0.7893502807428888,0.7424476834134028,0.7858340318524728
0.8163538873994638,0.7718261532596263,0.4214107660176514,0.16059037338913967,0.6819727891156461,0.5607949412827462,0.30070244956772335,0.655618084700496,0.652499004075629,0.6124205590177084,0.5879814347365849,0.6526763261884804
0.5710455764075066,0.6930041936713686,0.525971838577107,0.3372618129749972,0.514795918367347,0.5934959349593496,0.15552953890489918,0.33551125524608927,0.3329145343670518,0.32945640772505713,0.33413402817360144,0.40593940845407733
0.3251185811507527,0.7253145253526495,0.7094926901569762,0.44982927635202113,0.2976190476190476,0.7318879855465221,0.076278818443804,0.08989889355207942,0.06980663745288514,0.07629419386684767,0.08741144857910592,0.14974254580289786
0.22386058981233245,0.7790697674418604,0.8136495317658156,0.47284943275691155,0.1901360544217687,0.8271906052393857,0.0805115273775216,0.036293399465852784,0.0,0.0,0.0,0.04747934379116273
0.2148896679727779,0.8152878383530309,0.845112174088796,0.4567683665601938,0.16658163265306122,0.8654019873532068,0.17858429394812686,0.12480923311713092,0.06701804921398584,0.04667736163386193,0.024835111147300686,0.051909950904083346
0.20602186017735613,0.8219595882577202,0.8556221788048237,0.45764952087234273,0.15629251700680272,0.875609756097561,0.2154178674351585,0.15890881342998855,0.09349431557012841,0.0654346887147529,0.036194120999918575,0.05382588911507604
0.19426685914621572,0.810331681280976,0.8550832042040017,0.47064654697653924,0.15178571428571427,0.8697380307136405,0.2030799711815562,0.15208889736741704,0.08929611129837896,0.06108471648053313,0.030249979643351507,0.04526404023470243
0.1925139203959579,0.8142394205108654,0.8589907700599609,0.4693248155083159,0.14855442176870748,0.8741644083107497,0.21181556195965417,0.1578119038534911,0.09422976741335458,0.06487937311038443,0.03191922481882583,0.04538378637288948
0.17745926995256756,0.8448341593595119,0.8905207842080443,0.4596321180746778,0.12253401360544217,0.9098464317976512,0.3305115273775216,0.23574017550553225,0.1519627371066099,0.10677485037329551,0.06318703688624702,0.06065141899173751
0.14157558259434935,0.8483606557377049,0.9163915650474971,0.47681462716158163,0.09132653061224491,0.9288166214995482,0.4885626801152738,0.3344143456695918,0.2199001011246285,0.15012031838094653,0.08720788209429199,0.05819662315890312
0.11961229119406064,0.8194815097216928,0.9103281007882503,0.5052318537283842,0.08613945578231291,0.9111111111111111,0.5769092219020173,0.3865890881342999,0.25376152973983396,0.16909360153020303,0.0945769888445566,0.05119147407496108
0.10373272839760775,0.7906023637056805,0.900222327022839,0.5304548959136468,0.08596938775510204,0.8906052393857272,0.6055475504322767,0.3981781762685998,0.26169828088131647,0.17063614487567105,0.09217490432375211,0.0435277212309903
0.0938337801608579,0.7762104460541364,0.896584248467291,0.5440026434629364,0.08418367346938775,0.8813911472448058,0.6294128242074929,0.398893552079359,0.2629240339533601,0.1681063737891035,0.08830714111228727,0.03777990659801221
0.09125592905753763,0.7744948532215021,0.8970558512430102,0.5463156735323274,0.08282312925170067,0.8809394760614273,0.6628242074927955,0.4064288439526898,0.2667851561302976,0.16983402233602768,0.09017995277257553,0.04029457549994013
0.08836873582181892,0.7741136103698055,0.8987401468705787,0.5480779821566251,0.08061224489795918,0.8818428184281842,0.6843479827089337,0.4111980160244182,0.2698188949836056,0.17100635527858338,0.09111635860271963,0.042030894503652265
0.07640750670241286,0.7624857033930613,0.8982685440948595,0.5612952968388589,0.07593537414965987,0.8759710930442638,0.6809257925072046,0.4060950019076689,0.2659884166334692,0.16616276917381378,0.08496865076133862,0.03281044186324991
0.06393070736234274,0.7450438429279451,0.8940914909384895,0.5780372287696883,0.0733843537414966,0.8649503161698284,0.6668768011527378,0.39770125906142695,0.25912419943002485,0.158727710248658,0.07515674619330671,0.01933900131720753
0.062074654567952144,0.7364658787647731,0.889240719531092,0.5839850203766934,0.075765306122449,0.8576332429990966,0.6580511527377522,0.39464898893552086,0.2568872000735452,0.15588943049299686,0.0714925494666558,0.014429409651538744
0.06805526912765518,0.7406595501334349,0.8882975139796536,0.578367661636744,0.07882653061224491,0.8589882565492322,0.6681376080691643,0.40046737886302947,0.2598902951000521,0.1578947368421053,0.07324322123605567,0.019099509040833434
0.07145803258403795,0.7441860465116278,0.8885670012800646,0.5745126115210927,0.08001700680272109,0.8607949412827461,0.6759726224783862,0.40428271652041203,0.2614837740937088,0.15851175418029248,0.07458676003582768,0.022093162495509522
0.061455970303155284,0.7384674037361799,0.8910597588088661,0.5831038660645446,0.07431972789115647,0.8598012646793134,0.6661563400576369,0.3997996947729875,0.25887904881561613,0.1549639044857161,0.06970116440029313,0.015507124895222135
0.05547535574345226,0.7337018680899732,0.891598733409688,0.5890516576715497,0.07151360544217687,0.8579042457091238,0.6561599423631125,0.39221671117893936,0.254466337756259,0.15058308138458693,0.06408272941942839,0.007364387498503176
0.061765312435553714,0.7400876858558901,0.8919355925352018,0.5820024231743584,0.07389455782312924,0.861156278229449,0.655349423631124,0.3930274704311332,0.2538534612202372,0.1501511692478559,0.06424558260727951,0.008022991258531911
0.07743864714374098,0.7580060998856271,0.8944283500640032,0.5632778940411939,0.07874149659863947,0.8713640469738031,0.6648054755043228,0.39774895078214423,0.2584500352404009,0.15548836922317522,0.07124826968487907,0.016105855586157354
0.07929469993813157,0.765821578345406,0.8986727750454759,0.5577706795902633,0.07687074829931974,0.8778681120144536,0.6743515850144093,0.4002766119801603,0.261545061747311,0.15909792065157036,0.07552316586597183,0.022093162495509522
0.06836461126005361,0.7551467784979032,0.8982685440948595,0.5697764070932921,0.07261904761904762,0.8725383920505873,0.666606628242075,0.39407668828691345,0.2573162136487605,0.15524156228790031,0.07092256330917676,0.016944078553466652
0.05980614559703032,0.7489515821578345,0.8995486087718115,0.5779270844806697,0.06828231292517009,0.8704607046070459,0.6476945244956773,0.3849675696299123,0.2516471056905587,0.14981180971185293,0.06461200227994462,0.008142737396718959
0.06155908434728811,0.7521921463972551,0.9006939297985581,0.5751734772552043,0.06828231292517009,0.8727190605239386,0.6487752161383286,0.38305990080122093,0.250084270523703,0.1480533102980194,0.06253562413484244,0.005687941563884566
0.06970509383378015,0.7620091498284407,0.9023108536010239,0.5651503469545104,0.070578231292517,0.8785004516711835,0.664985590778098,0.39145364364746277,0.2540066803542427,0.15160115999259582,0.06644410064327008,0.012453598371452523
0.07321097133429572,0.766488753335875,0.9032540591524624,0.5606344311047472,0.07151360544217687,0.8812104787714543,0.6802953890489913,0.40018122853872573,0.2587871173352128,0.15437773801443824,0.06941617132155362,0.016405220931624963
0.06104351412662405,0.7547655356462066,0.902849828201846,0.5738517457869808,0.06675170068027211,0.8754290876242096,0.681286023054755,0.39975200305227016,0.25841939141359976,0.15218732646387367,0.06660695383112122,0.01227397916417196
0.05083522375747576,0.7456157072054899,0.9030519436771541,0.584645886110805,0.06232993197278912,0.8712737127371274,0.6769632564841499,0.39512590614269366,0.25547758404069504,0.14900968717220958,0.061843498086475025,0.005149083942042877
0.05300061868426479,0.7452344643537934,0.9013676480495856,0.5837647317986562,0.0642857142857143,0.8699186991869918,0.6814661383285303,0.3969381915299504,0.25621303588392125,0.1490405380391189,0.06216920446217734,0.005029337803855831
0.06599298824499897,0.7531452535264964,0.8984706595701678,0.5721995814517017,0.07151360544217687,0.8717253839205058,0.6947946685878963,0.405951926745517,0.26114669199889684,0.1531745542049732,0.0677062128491165,0.011735121542330258
0.07166426067230358,0.7540983606557377,0.8954389274405444,0.5685648199140875,0.075765306122449,0.8700993676603432,0.7086635446685878,0.41529950400610455,0.26629485490148014,0.15755537730610233,0.07230681540591156,0.016405220931624963
0.059084347288100636,0.7405642394205108,0.8940914909384895,0.5832140103535631,0.07142857142857142,0.8627822944896116,0.7094740634005764,0.41425028615032433,0.2650384580026354,0.15508730795335351,0.06868333197622344,0.010238294814992225
0.04207053000618684,0.7296035074342355,0.8974600821936266,0.5985240665271505,0.06224489795918367,0.8598915989159891,0.703620317002882,0.4093380389164441,0.261545061747311,0.15089159005368055,0.06253562413484244,0.002035684349179749
0.04103938956485874,0.7363705680518489,0.9029845718520515,0.5952197378565921,0.058418367346938775,0.8667570009033423,0.701278818443804,0.4107210988172454,0.26206600680292963,0.1500586166471278,0.06151779171077271,0.00047898455274818545
0.053825531037327276,0.7504765535646206,0.9045341238294146,0.5802401145500605,0.0626700680272109,0.8745257452574526,0.7149675792507205,0.4202117512399848,0.2676431832807281,0.15431603628061955,0.06603696767364219,0.008262483534906004
0.06578676015673333,0.7563858177659168,0.9008960452738664,0.5704372728274039,0.06989795918367349,0.8748870822041553,0.7266750720461095,0.42889164441053035,0.2722704011276929,0.15761707903992106,0.07018972396384658,0.015267632618848042
0.05815632089090535,0.7425657643919176,0.8961126456915718,0.5824430003304328,0.06981292517006803,0.8651309846431796,0.7242435158501442,0.4273655093475773,0.2713510863236601,0.15508730795335351,0.06697337350378632,0.00928032570949588
0.049700969272014846,0.7298894395730079,0.8926766826113319,0.5943385835444431,0.06845238095238096,0.8568202348690154,0.7169488472622478,0.42407478061808473,0.2675206079735238,0.14978095884494358,0.06005211302011236,0.00023949227637409272
0.05042276758094453,0.7297941288600838,0.89213770801051,0.5940081506773873,0.06904761904761905,0.8564588979223126,0.7205511527377522,0.4280808851583366,0.26822541598994887,0.14885543283766278,0.05874928751730314,0.0
0.0625902247886162,0.7400876858558901,0.8914639897594826,0.581561846018284,0.0745748299319728,0.8608852755194218,0.7393731988472623,0.4383346051125525,0.27300585297091906,0.1524032825322392,0.06367559644980048,0.007663752843970786
0.06661167250979584,0.7408501715592831,0.8893754631812977,0.5790285273708558,0.07755102040816327,0.8598012646793134,0.753692363112392,0.44648988935520795,0.27732663254987283,0.15499475535262544,0.06721765328556305,0.013770805891510007
0.05929057537636626,0.7275066717499046,0.8846594354241056,0.5905936777178102,0.07746598639455785,0.8503161698283651,0.7511707492795389,0.4480637161388783,0.27732663254987283,0.15308200160424512,0.06546698151616318,0.011076517782301523
0.0540317591255929,0.7128288219595881,0.8777875092636258,0.6019385394867275,0.07959183673469389,0.8387533875338753,0.7369416426512968,0.44439145364364746,0.27303649679772013,0.14752884556056028,0.05997068642618677,0.005448449287510486
0.06094040008249123,0.7090163934426229,0.8705787239776325,0.600396519440467,0.0870748299319728,0.8320686540198736,0.734149855907781,0.44482067913010304,0.27153494928446664,0.14527673227617702,0.058830714111228734,0.005807687702071612
0.08022272633532687,0.7214067861227601,0.8667385299467762,0.5829937217755259,0.0973639455782313,0.8354110207768743,0.7476585014409223,0.45378672262495234,0.27637667391903903,0.14910223977293766,0.06461200227994462,0.015267632618848042
0.08610022685089709,0.7269348074723598,0.8668059017718789,0.5766053530124463,0.09974489795918366,0.8381210478771455,0.7577449567723343,0.4614173979397177,0.2812796862072136,0.15135435305732095,0.06733979317645143,0.020955574182732608
0.07836667354093628,0.7201677468547464,0.8670753890722899,0.584645886110805,0.09642857142857142,0.8350496838301715,0.7476585014409223,0.45726821823731406,0.27830723500750776,0.14647991608564204,0.06249491083787965,0.016345347862531435
0.07300474324603012,0.7151162790697674,0.8670080172471871,0.5903733891397731,0.09430272108843538,0.8326106594399277,0.7310878962536024,0.4507821442197635,0.27334293506573104,0.14027889183686065,0.05569579024509402,0.008741468087654178
0.08073829655599093,0.7205489897064429,0.8657953243953378,0.5831038660645446,0.09821428571428573,0.8344173441734416,0.7291066282420751,0.45330980541777954,0.27340422271933323,0.13935336582957986,0.054718671117987124,0.008382229673093052
0.09548360486698287,0.7311284788410216,0.8636394259920501,0.5692256856481991,0.10561224489795917,0.837940379403794,0.7425252161383287,0.4653281190385349,0.28039101522998194,0.14481396927253656,0.06151779171077271,0.01933900131720753
0.10507321097133429,0.7417079679756003,0.8648521188438995,0.5579909681683005,0.108843537414966,0.8437217705510389,0.7496397694524496,0.47620183136207556,0.28851162933227104,0.15212562473005498,0.07035257715169772,0.03065501137588313
0.10301093008867807,0.7434235608082348,0.8674796200229064,0.5579909681683005,0.10637755102040815,0.846341463414634,0.7459474063400577,0.47825257535291876,0.2920663132411976,0.15524156228790031,0.07320250793909291,0.03245120344868878
0.09847391214683439,0.7398017537171178,0.8678164791484201,0.5626170283070823,0.1042517006802721,0.8448057813911471,0.733249279538905,0.47558183899275086,0.2939662305028652,0.1570617634355526,0.07356892761175798,0.02987666147766735
0.10899154464838111,0.753717117804041,0.8707808394529407,0.548959136468774,0.10671768707482993,0.8533875338753388,0.7264949567723343,0.47663105684853113,0.2977354211993994,0.16310853334978717,0.0789837961078088,0.035863968387019524
0.123221282738709,0.7836446816622188,0.8826382806710233,0.5239563828615486,0.10510204081632653,0.875609756097561,0.7302773775216139,0.4824494467760397,0.30597861060889286,0.17495526624298147,0.09319273674782182,0.05214944318045743
0.1315735203134667,0.807472359893252,0.893956747288284,0.5057825751734772,0.10136054421768709,0.8944896115627824,0.7360410662824207,0.48554940862266316,0.31241381423712195,0.18525945579070774,0.10613956518198843,0.06580050293378038
0.12548979170963084,0.8061380099123141,0.8970558512430102,0.509857913867166,0.09693877551020406,0.8958446251129177,0.7236131123919309,0.47725104921785577,0.3119848006619067,0.1890849632874684,0.11045517466004395,0.0672374565920249
0.11620952773767787,0.7939382386580252,0.894495721889106,0.5218636413701949,0.09472789115646257,0.8883468834688346,0.7065021613832853,0.4643742846241893,0.3072043636809365,0.18874560375146543,0.10947805553293703,0.06232786492635612
0.11785935244380284,0.796035074342356,0.8949673246648252,0.5197708998788413,0.09506802721088435,0.8897018970189702,0.7000180115273776,0.4556466997329264,0.30417062482762847,0.19139877830567043,0.112368699617295,0.06454316848281644
0.12425242318003711,0.8069004956157072,0.898403287745065,0.5099680581561845,0.095578231292517,0.8971093044263775,0.7037103746397695,0.45364364746280045,0.30334324150399905,0.1947923736657,0.11701001547105283,0.06987187163213986
0.12084965972365437,0.8094738848646588,0.9024455972512295,0.5104086353122591,0.09158163265306124,0.9010840108401085,0.7038004322766572,0.44939908431896225,0.3014739680691325,0.19608811007589316,0.11892354042830386,0.07226679439588074
0.1070323778098577,0.7980365993137628,0.9033214309775651,0.5242868157286044,0.08537414965986395,0.8962059620596206,0.6893912103746398,0.43628386112170925,0.2938130113688598,0.1917998395754921,0.11375295171402978,0.06466291462100347
0.09445246442565476,0.7855508959207015,0.902849828201846,0.5382751404339685,0.08044217687074831,0.890063233965673,0.6752521613832854,0.42259633727584894,0.28458921950173144,0.18587647312889496,0.10544743913362102,0.053526523769608425
0.09063724479274077,0.7875524208921083,0.9066900222327022,0.5391562947461174,0.07653061224489796,0.8934959349593496,0.6740814121037465,0.4176840900419687,0.2812490423804125,0.18408712284815207,0.10426675352170019,0.050353251107651785
0.09857702619096721,0.7968928707586732,0.9081048305598598,0.529573741601498,0.07882653061224491,0.8989159891598916,0.6787644092219021,0.4198302174742465,0.28342475408329,0.18760412167581914,0.10980376190863934,0.05693928870793916
0.10208290369148278,0.8017537171178041,0.9092501515866064,0.5248375371736975,0.07959183673469389,0.9019873532068655,0.6823667146974064,0.41968714231209464,0.2848956577697423,0.19044240143148028,0.11318296555655076,0.0617291342354209
0.09599917508764694,0.796035074342356,0.9092501515866064,0.5314461945148143,0.07712585034013607,0.8992773261065944,0.6748919308357348,0.4166348721861885,0.282107069530843,0.18834454248164378,0.11090302092663464,0.05819662315890312
0.0843472881006393,0.7842165459397636,0.9084416896853735,0.5444432206190108,0.07278911564625849,0.8931345980126468,0.6688580691642652,0.4122949256009157,0.2780927282199001,0.1843647806503363,0.10479602638221643,0.049395282002155434
0.08836873582181892,0.7836446816622188,0.9054099575557502,0.542680911994713,0.07636054421768707,0.8908762420957542,0.669128242074928,0.4120564669973293,0.277694358471486,0.18405627198124272,0.10402247373992346,0.049395282002155434
0.10589812332439677,0.7942241707967975,0.9015023916997912,0.5271505672430884,0.0860544217687075,0.8932249322493225,0.6767831412103746,0.41715948111407863,0.2812796862072136,0.18751156907509106,0.10935591564204868,0.05759789246796791
0.11486904516395133,0.796035074342356,0.8967863639425991,0.5213129199251018,0.0927721088435374,0.89096657633243,0.6788544668587896,0.4181610072491416,0.28176998743603104,0.18834454248164378,0.1117172868658904,0.06101065740629865
0.10775417611878738,0.7887914601601219,0.8963821329919828,0.529243308734442,0.09005102040816326,0.8872628726287264,0.664985590778098,0.41062571537581083,0.27772500229828706,0.18516690318997966,0.10829736992101618,0.05723865405340677
0.09404000824912354,0.7779260388867708,0.8976621976689347,0.5429012005727503,0.08358843537414964,0.8829268292682927,0.650756484149856,0.40170736360167875,0.2716881684184721,0.1798914049484791,0.10259750834622586,0.050293378038558254
0.0946586925139204,0.776591688905833,0.89631476116688,0.5433417777288247,0.0846938775510204,0.8813911472448058,0.6494956772334294,0.39965661961083554,0.2699108264640089,0.17822545813537363,0.10031756371630975,0.048557059034846126
0.10527943905959991,0.7850743423560809,0.8953715556154416,0.5327679259830378,0.08962585034013607,0.8847335140018068,0.6612031700288185,0.40604731018695156,0.27254619556890264,0.18202011476522492,0.10467388649132804,0.0553825889115076
0.11218808001649824,0.7897445672893633,0.894226234588695,0.5263795572199581,0.09319727891156464,0.8861788617886178,0.6694884726224783,0.41262876764593664,0.2756412220758129,0.1853828592583452,0.10870450289064407,0.061968626511794994
0.10517632501546711,0.7817384674037362,0.893148285387051,0.5347505231853729,0.0910714285714286,0.8817524841915085,0.6648955331412104,0.4091472720335749,0.27459933196457575,0.18316159684087127,0.10556957902450939,0.057837384744341996
0.09414312229325633,0.7702058711399161,0.89213770801051,0.5473069721334948,0.0870748299319728,0.8755194218608852,0.6547190201729107,0.40161198016024424,0.2700946894248154,0.17890417720737956,0.09991043074668185,0.04981439348581008
0.09424623633738914,0.7700152497140679,0.8919355925352018,0.5473069721334948,0.08724489795918366,0.875338753387534,0.6568804034582133,0.4025181228538726,0.27061563448043396,0.17890417720737956,0.09970686426186791,0.04963477427852952
0.10579500928026397,0.7817384674037362,0.8926093107862292,0.5344200903183169,0.09158163265306124,0.8813911472448058,0.6694884726224783,0.40938573063716144,0.27527349615419977,0.18408712284815207,0.1055288657275466,0.05747814632978087
0.11002268508970922,0.7869805566145635,0.8936198881627703,0.5291331644454235,0.09268707482993198,0.8845528455284554,0.6751621037463977,0.41353491033956513,0.2789201115435296,0.18849879681619058,0.1116358602719648,0.06460304155190995
0.10146421942668592,0.77582920320244,0.891329246109277,0.5401475933472849,0.09064625850340136,0.877687443541102,0.6636347262247839,0.4105303319343762,0.27766371464468487,0.18717220953908809,0.10968162201775099,0.06065141899173751
0.09104970096927201,0.765059092642013,0.8905207842080443,0.5519330322722766,0.08690476190476193,0.8720867208672086,0.6527377521613833,0.406619610835559,0.2750589893665921,0.18482754365397672,0.1045924598974025,0.05418512752963717
0.09692720148484224,0.7720167746854747,0.891598733409688,0.5447736534860668,0.08860544217687073,0.8760614272809395,0.6492255043227666,0.4064288439526898,0.2762234547850336,0.18643178873326344,0.1054881524305838,0.056160938809723386
0.11156939575170138,0.7874571101791841,0.8929461699117428,0.5280317215552373,0.09379251700680273,0.8842818428184281,0.6581412103746398,0.4132964517359786,0.28045230288358414,0.19090516443512065,0.1117172868658904,0.0644832954137229
0.11208496597236545,0.7922226458253907,0.8959779020413663,0.5249476814627161,0.09209183673469389,0.8885275519421861,0.6638148414985591,0.4151564288439527,0.2830570281616768,0.1931264268525946,0.11570718996824363,0.06939288707939169
0.10156733347081873,0.780975981700343,0.8948999528397223,0.5371736975437823,0.08843537414965986,0.88256549232159,0.6567903458213257,0.4102918733307898,0.28017650844237435,0.19059665576602708,0.11306082566566239,0.064722787690097
0.08682202515982677,0.765154403354937,0.893417772687462,0.554135918052649,0.08324829931972791,0.8739837398373983,0.6488652737752162,0.40409194963754297,0.27573315355621614,0.18661689393471959,0.10675026463643023,0.05568195425697521
0.0862033408950299,0.7626763248189096,0.8920703361854072,0.5558982266769468,0.08392857142857142,0.871996386630533,0.6498559077809799,0.40404425791682563,0.27487512640578554,0.18541371012525454,0.10471459978829084,0.051969823973176864
0.0957929469993813,0.7696340068623713,0.8906555278582496,0.5467562506884017,0.0886904761904762,0.8742547425474254,0.6653458213256485,0.4101011064479207,0.27830723500750776,0.1882211390140063,0.10870450289064407,0.05795713088252904
0.09806145597030316,0.7761151353412123,0.8937546318129758,0.5417997576825642,0.08775510204081631,0.879494128274616,0.6712896253602305,0.4134872186188478,0.2809119602856005,0.1908126118343926,0.11118801400537415,0.0617291342354209
0.0890905341307486,0.7762104460541364,0.899683352422017,0.5465359621103645,0.0802721088435374,0.8834688346883469,0.6626440922190202,0.4074303700877528,0.27824594735390556,0.18862220028382803,0.1078902369513883,0.05652017722428452
0.07506702412868632,0.7721120853983987,0.9059489321565721,0.5563388038330213,0.070578231292517,0.8857271906052395,0.649585734870317,0.3990843189622282,0.27349615419973644,0.1843647806503363,0.10243465515837473,0.04813794755119147
0.07620127861414726,0.7790697674418604,0.9101259853129421,0.5518228879832581,0.06836734693877551,0.891869918699187,0.6509365994236311,0.3991320106829455,0.27355744185333863,0.18473499105324862,0.10357462747333276,0.048197820620285
0.0889874200866158,0.7900304994281357,0.9095196388870174,0.5386055733010242,0.07406462585034015,0.8965672990063234,0.6642651296829971,0.40576115986264794,0.27732663254987283,0.18905411242055906,0.10968162201775099,0.05693928870793916
0.09775211383790473,0.790888295844453,0.904399380179209,0.5334287917171494,0.08086734693877551,0.8935862691960252,0.6731808357348703,0.41181800839374283,0.2804829467103852,0.19226260257913252,0.11391580490188094,0.06466291462100347
0.08630645493916272,0.7728745711017917,0.8991443778211952,0.5499504350699416,0.07950680272108843,0.8814814814814814,0.6635446685878963,0.4060950019076689,0.2768056874942543,0.18843709508237183,0.10984447520560214,0.05891509998802538
0.07991338420292844,0.7578154784597789,0.8926766826113319,0.5620663068619892,0.08086734693877551,0.8700993676603432,0.6459834293948128,0.3971766501335368,0.2708914289216438,0.18202011476522492,0.10369676736422115,0.050532870314932345
0.08805939368942049,0.7601982462828821,0.8890386040557838,0.5563388038330213,0.08656462585034015,0.8687443541102078,0.6455331412103746,0.39650896604349484,0.2697576073300034,0.1810328870241254,0.10300464131585377,0.05244880852592504
0.10218601773561559,0.7667746854746472,0.8844573199487974,0.544993942064104,0.09523809523809526,0.8688346883468835,0.6558897694524496,0.4018981304845479,0.2724542640884994,0.18356265811069294,0.10658741144857908,0.058436115435277214
0.10177356155908435,0.7627716355318338,0.8818971905948932,0.547527260711532,0.0967687074829932,0.8651309846431796,0.6625540345821326,0.40337657382678366,0.272301044954494,0.18347010550996487,0.10679097793339302,0.05963357681714765
0.08733759538049081,0.7482844071673656,0.8810887286936603,0.5636083269082498,0.09132653061224491,0.8578139114724481,0.6499459654178675,0.3935520793590233,0.2651916771366409,0.1773307829950022,0.10031756371630975,0.05173033169680278
0.08073829655599093,0.7419939001143727,0.8809539850434549,0.5707677056944597,0.08860544217687073,0.8547425474254743,0.6331051873198847,0.38282144219763453,0.2589096926424172,0.17091380267785528,0.09347772982656133,0.04310860974733565
0.08651268302742833,0.7534311856652688,0.8852657818500302,0.5610750082608216,0.08835034013605442,0.8629629629629628,0.6367975504322767,0.3843952689813049,0.2600435142340576,0.171746776084408,0.09445484895366826,0.04418632499101904
0.1013611053825531,0.7716355318337781,0.8884322576298592,0.542680911994713,0.09243197278911566,0.8737127371273713,0.6497658501440923,0.3933136207554369,0.2654981154046518,0.17717652866045538,0.10149824932823058,0.0540055083223566
0.10404207053000618,0.7834540602363707,0.8950346964899278,0.5343099460292983,0.08937074829931974,0.8838301716350497,0.6613832853025937,0.39827355971003436,0.2692366622743848,0.18084778182266925,0.10532529924273266,0.05921446533349299
0.08981233243967829,0.778783835303088,0.901030788924072,0.5446635091970481,0.07976190476190476,0.8856368563685637,0.6569704610951009,0.3932182373140023,0.2664174302086845,0.17825630900228298,0.10149824932823058,0.05280804694048617
0.08063518251185811,0.7671559283263438,0.8988075186956813,0.5562286595440026,0.0773809523809524,0.8785907859078591,0.6509365994236311,0.3856352537199543,0.26169828088131647,0.173289319429876,0.09539125478381237,0.04442581726739313
0.0824912353062487,0.7636294319481509,0.8951020683150306,0.5573301024341887,0.08044217687074831,0.8744354110207769,0.6549891930835735,0.38873521556657764,0.26319982839456996,0.17480101190843467,0.09681622017750997,0.04706023230750808
0.09001856052794391,0.7692527640106747,0.8941588627635921,0.5500605793589602,0.08418367346938775,0.8765130984643179,0.6745317002881845,0.39855971003433804,0.2690527993135783,0.18016906275066336,0.10341177428548162,0.05508322356603999
0.09682408744070942,0.7741136103698055,0.893148285387051,0.543562066306862,0.08758503401360544,0.8780487804878049,0.678314121037464,0.4028519648988935,0.2718413875524776,0.18285308817177767,0.10780881035746273,0.06047179978445695
0.09012167457207672,0.7672512390392681,0.8926766826113319,0.5511620222491463,0.08511904761904762,0.8745257452574526,0.6497658501440923,0.39092903471957274,0.26586584132626484,0.17819460726846428,0.10341177428548162,0.05436474673691774
0.08579088471849866,0.7707777354174609,0.8979316849693457,0.5513823108271836,0.08001700680272109,0.8797651309846433,0.6258105187319886,0.382058374666158,0.2612386234793001,0.17412229283642874,0.09848546535298429,0.047838582205723866
0.08506908640956898,0.7780213495996949,0.9035909182779761,0.5476374050005507,0.07610544217687074,0.8869918699186992,0.6237391930835735,0.38243990843189624,0.2609628290380903,0.17301166162769177,0.0970197866623239,0.046162136271105256
0.09476180655805319,0.7922226458253907,0.907296368658627,0.5341998017402798,0.07780612244897958,0.8961156278229448,0.6304935158501441,0.38573063716138883,0.26372077345018846,0.176713765656815,0.10105040306163993,0.052209316249550955
0.09414312229325633,0.7999428135722455,0.9130903456174627,0.530124463046591,0.07389455782312924,0.9037037037037036,0.6367074927953891,0.3885921404044258,0.26574326601906045,0.17896587894119828,0.10324892109763048,0.05496347742785295
0.08094452464425654,0.7930804422417079,0.916930539648319,0.5411388919484524,0.06607142857142859,0.9030713640469737,0.6267110951008645,0.3852537199542159,0.263567554316183,0.1766212130560869,0.09999185734060743,0.050293378038558254
0.07269540111363167,0.7824056423942051,0.9147746412450313,0.5517127436942394,0.06403061224489796,0.8964769647696476,0.6140129682997119,0.37843380389164444,0.26001287040725646,0.17365952983278832,0.0945769888445566,0.04322835588552269
0.07898535780573314,0.7828821959588258,0.9110018190392777,0.5480779821566251,0.0689625850340136,0.8942186088527552,0.6175252161383286,0.38067531476535676,0.26080960990408486,0.1744616523724317,0.09592052764432862,0.044605436474673694
0.09063724479274077,0.7942241707967975,0.911406049989894,0.5353012446304659,0.0735544217687075,0.8998193315266487,0.6338256484149857,0.3913582602060283,0.26684644378389977,0.17976800148084163,0.10324892109763048,0.05424500059873069
0.09300886780779542,0.7987037743042317,0.91302297379236,0.5314461945148143,0.07346938775510205,0.9030713640469737,0.647064121037464,0.3979397176650134,0.27205589434008526,0.18417967544888017,0.10813451673316504,0.05951383067896061
0.08166632295318622,0.7851696530690049,0.910934447214175,0.5453243749311598,0.0701530612244898,0.8953026196928636,0.6375180115273776,0.39369515452117515,0.26960438819599797,0.1815882026284939,0.104103900333849,0.05466411208238534
0.07341719942256135,0.7711589782691575,0.9063531631071885,0.5577706795902633,0.06964285714285716,0.8855465221318879,0.6316642651296831,0.388115223197253,0.26552875923145286,0.17736163386191156,0.09917759140135167,0.047179978445695124
0.07836667354093628,0.7700152497140679,0.9023108536010239,0.5558982266769468,0.07414965986394556,0.8822944896115628,0.6385987031700289,0.3908813429988554,0.26617227959427575,0.1787807737397421,0.10011399723149578,0.05017363190037121
0.09032790266034234,0.7784979031643156,0.90049181432325,0.5445533649080294,0.0802721088435374,0.8850948509485096,0.6512067723342939,0.39803510110644796,0.27058499065363284,0.18334670204232742,0.10569171891539773,0.058376242366183696
0.09888636832336564,0.7785932138772398,0.8950346964899278,0.5399273047692477,0.08724489795918366,0.8814814814814814,0.658321325648415,0.4020412056466997,0.27254619556890264,0.18566051706052944,0.10878592948456965,0.06262723027182374
0.08991544648381108,0.7576248570339307,0.8860068719261605,0.5568895252781143,0.08920068027210884,0.8654923215898825,0.6472442363112392,0.3954120564669973,0.26761253945392705,0.17998395754920715,0.10251608175230027,0.05442461980601126
0.07939781398226439,0.7372283644681661,0.8784612275146533,0.5742923229430553,0.08962585034013607,0.8507678410117434,0.6365273775216138,0.3872090805036246,0.26139184261330556,0.17369038069969772,0.09437342235974268,0.04418632499101904
0.0862033408950299,0.7390392680137247,0.8752947517348245,0.5695561185152549,0.09447278911564624,0.8495031616982835,0.6340057636887608,0.3864937046928653,0.2601660895412619,0.17298081076078242,0.09319273674782182,0.04454556340558017
0.10249535986801403,0.7524780785360274,0.8741494307080779,0.5531446194514814,0.10187074829931975,0.855103884372177,0.6421109510086456,0.3921690194582221,0.2634449790089787,0.1772690812611835,0.09893331161957494,0.053466650700514914
0.1060012373685296,0.758673274876096,0.8762379572862629,0.5476374050005507,0.10204081632653061,0.8594399277326107,0.6492255043227666,0.3959843571156048,0.2665093616890878,0.18004565928302588,0.10223108867356076,0.058316369297090165
0.10167044751495152,0.7520968356843308,0.8744189180084888,0.553805485185593,0.10144557823129251,0.855103884372177,0.6448126801152738,0.3911198016024418,0.2633836913553765,0.17674461652372433,0.09807833238335639,0.05173033169680278
0.09197772736646731,0.7470453678993519,0.8771811628377013,0.561846018283952,0.09566326530612244,0.8545618789521229,0.6311239193083574,0.3853967951163679,0.2607176784236816,0.17409144196951937,0.09400700268707757,0.04562327864926356
0.09538049082285008,0.7588638963019443,0.8833119989220507,0.5531446194514814,0.09319727891156464,0.8643179765130985,0.6392291066282422,0.3878767645936666,0.26326111604817215,0.17600419571789971,0.09673479358358439,0.04951502814034247
0.10486698288306866,0.7743995425085779,0.8881627703294482,0.5391562947461174,0.09404761904761906,0.8748870822041553,0.6528278097982709,0.3920736360167875,0.26611099194067356,0.1791818350095638,0.10186466900089569,0.05735840019159382
0.10094864920602187,0.7803088067098742,0.8948999528397223,0.537834563277894,0.08818027210884354,0.8822041553748872,0.6594020172910664,0.39536436474628006,0.2680415530291423,0.18050842228666628,0.10479602638221643,0.05933421147168004
0.08259434935038153,0.7630575676706062,0.8946978373644142,0.5575503910122259,0.08078231292517009,0.8738934056007227,0.6540886167146975,0.3890213658908814,0.26335304752857536,0.17532547664589376,0.09852617864994705,0.04921566279487486
0.06681790059806145,0.7459969500571864,0.8928787980866402,0.5759444872783346,0.07542517006802722,0.8645889792231255,0.6551693083573488,0.3833460511255246,0.2582048846259921,0.17038933794039615,0.0908720788209429,0.03807927194347982
0.064343163538874,0.7482844071673656,0.8960452738664689,0.5759444872783346,0.0723639455782313,0.867750677506775,0.6611131123919309,0.38434757726058755,0.25799037783838447,0.17038933794039615,0.09001709958472434,0.03754041432163813
0.07558259434935037,0.7591498284407168,0.8964495048170854,0.5636083269082498,0.07678571428571429,0.8731707317073172,0.6712896253602305,0.39092903471957274,0.2624337327245426,0.1747701610415253,0.09632766061395652,0.04556340558017004
0.08001649824706125,0.76153259626382,0.8952368119652361,0.5598634210816169,0.07933673469387756,0.8735320686540199,0.6735410662824207,0.3944105303319344,0.2639352802377961,0.1763127043869933,0.09872974513476102,0.04951502814034247
0.07145803258403795,0.7601982462828821,0.8999528397224281,0.5651503469545104,0.07287414965986395,0.8760614272809395,0.6604827089337176,0.3888305990080122,0.2617902123617198,0.1741531437033381,0.09632766061395652,0.04520416716560891
0.06970509383378015,0.7704918032786885,0.9083069460351682,0.5601938539486727,0.06683673469387756,0.8865401987353206,0.6373378962536024,0.38272605875619997,0.2586338982012074,0.1727648546924169,0.09416985587492875,0.04089330619087535
0.0739327696432254,0.7852649637819291,0.9159873340968807,0.5493997136248485,0.06369047619047619,0.8986449864498646,0.6338256484149857,0.3839660434948493,0.2599822265804554,0.17464675757388787,0.0960833808321798,0.042928990540055084
0.08445040214477212,0.7994662600076249,0.9190864380516067,0.5356316774975217,0.06607142857142859,0.907497741644083,0.6398595100864554,0.38930751621518506,0.2641191431986027,0.17859566853828596,0.10170181581304451,0.051790204765896304
0.08610022685089709,0.8040411742279832,0.9213097082799973,0.532107060248926,0.06539115646258505,0.9111111111111111,0.6392291066282422,0.39097672644028997,0.26592712897986703,0.1804158696859382,0.10422604022473739,0.05580170039516226
0.07455145390802226,0.7921273351124666,0.9203665027285589,0.5451040863531225,0.06122448979591837,0.9048780487804878,0.6284221902017292,0.3845383441434567,0.2616676370545154,0.1758807922502623,0.09828189886817032,0.0476589629984433
0.06424004949474119,0.7857415173465497,0.9225897729569493,0.5543562066306862,0.05552721088435373,0.903342366757001,0.6151837175792508,0.3753815337657383,0.25697913155394847,0.17063614487567105,0.09144206497842194,0.040055083223566046
0.06970509383378015,0.7906976744186047,0.9225897729569493,0.5485185593126997,0.057823129251700675,0.9056910569105692,0.6157240634005764,0.3762399847386494,0.2572242821683572,0.17072869747639913,0.09201205113590098,0.04095317925996887
0.08475974427717055,0.7913648494090736,0.9132250892676682,0.5401475933472849,0.06989795918367349,0.8997289972899729,0.6315742074927955,0.38511064479206414,0.26175956853491866,0.17510952057752827,0.09828189886817032,0.049395282002155434
0.08929676221901423,0.7825009531071292,0.9039951492285926,0.5427910562837317,0.07763605442176871,0.8893405600722674,0.6403097982708934,0.39045211751239983,0.2646400882542212,0.17767014253100513,0.10182395570393289,0.05298766614776674
0.07826355949680346,0.7642012962256958,0.8982685440948595,0.5592025553475052,0.07670068027210884,0.8768744354110208,0.6343659942363112,0.3852537199542159,0.26194343149572524,0.17523292404516572,0.09889259832261216,0.04759908992934978
0.07341719942256135,0.7501906214258482,0.8915313615845853,0.5698865513823108,0.07899659863945578,0.8656729900632341,0.6335554755043228,0.38305990080122093,0.26019673336806304,0.1727648546924169,0.09490269522025892,0.04394683271464495
0.08094452464425654,0.754288982081586,0.8895102068315031,0.5636083269082498,0.08333333333333331,0.8663053297199639,0.6388688760806917,0.38711369706219007,0.2626175956853492,0.17520207317825634,0.09763048611676574,0.04723985151478865
0.09197772736646731,0.7644872283644681,0.8895102068315031,0.5518228879832581,0.08792517006802722,0.8710930442637759,0.6518371757925072,0.394172071728348,0.2660190604602703,0.17844141420373916,0.10369676736422115,0.056041192671536344
0.09362755207259228,0.7647731605032404,0.8886343731051675,0.550721445093072,0.08911564625850342,0.8706413730803976,0.6561599423631125,0.39751049217855783,0.2683479912971532,0.18038501881902885,0.10658741144857908,0.059693449886241166
0.08228500721798308,0.7522874571101792,0.8872195647780098,0.5640489040643242,0.08537414965986395,0.8637759710930444,0.6467038904899136,0.39140595192674554,0.26430300615940927,0.1764669587215401,0.10162038921911896,0.05268830080229913
0.07774798927613939,0.742184521540221,0.8830425116216398,0.5723097257407204,0.0860544217687075,0.8561878952122854,0.6350864553314122,0.3848721861884777,0.2601660895412619,0.1729191090269637,0.09657194039573325,0.04526404023470243
0.08362548979170964,0.7383720930232557,0.8765074445866738,0.5713184271395527,0.09260204081632653,0.8500451671183379,0.6385086455331412,0.3876859977107974,0.2605951031164772,0.17316591596223857,0.09620552072306814,0.04568315171835709
0.09197772736646731,0.7398970644300419,0.8721282759549956,0.5660315012666592,0.09889455782312924,0.8477868112014454,0.6531880403458213,0.3946012972148035,0.26378206110379065,0.1757573887826248,0.09868903183779822,0.050951981798586995
0.09187461332233451,0.7410407929851314,0.8729367378562285,0.5653706355325475,0.09829931972789117,0.8488708220415536,0.6569704610951009,0.39412438000763067,0.263567554316183,0.17480101190843467,0.0983633254620959,0.050772362591306436
0.07774798927613939,0.7345596645062904,0.8776527656134204,0.5767154973014649,0.08954081632653062,0.8489611562782294,0.6432817002881844,0.3850152613506295,0.25903226794962153,0.1705127414080336,0.09286703037211953,0.04370734043827087
0.07362342751082697,0.7319862752573388,0.878528599339756,0.5803502588390791,0.08724489795918366,0.8483288166214995,0.6352665706051873,0.3801030141167494,0.2561823920571201,0.16816807552292223,0.08924354694243138,0.038678002634415044
0.08166632295318622,0.7435188715211588,0.881425587819174,0.5693358299372178,0.0886904761904762,0.8557362240289068,0.6419308357348703,0.3847768027470431,0.2595838568320412,0.17140741654840502,0.09339630323263577,0.044306071129206086
0.09125592905753763,0.7655356462066336,0.8907228996833524,0.5514924551162023,0.08681972789115647,0.8724480578139114,0.6627341498559078,0.3961751239984739,0.26773511476113143,0.17945949281174806,0.10300464131585377,0.055741827326068735
0.09001856052794391,0.7747807853602745,0.8980664286195513,0.5468663949774204,0.08163265306122451,0.8817524841915085,0.6685878962536024,0.3978443342235788,0.27000275794441214,0.18115629049176285,0.10585457210324892,0.05849598850437073
0.07527325221695194,0.7673465497521922,0.9024455972512295,0.5589822667694679,0.07287414965986395,0.8811201445347786,0.6592219020172911,0.39092903471957274,0.26629485490148014,0.17742333559573029,0.10166110251608175,0.05083223566039995
0.0691895236131161,0.7611513534121235,0.902041366300613,0.5658112126886221,0.070578231292517,0.8779584462511292,0.6502161383285303,0.3844906524227394,0.26126926730610117,0.17319676682914795,0.09596124094129141,0.043886959645551435
0.07362342751082697,0.7678231033168128,0.9038604055783872,0.5596431325035797,0.07125850340136056,0.8822944896115628,0.6589517291066282,0.3864937046928653,0.2617902123617198,0.17452335410625042,0.09746763292891455,0.045443659441982996
0.07846978758506908,0.7788791460160122,0.9085090615104763,0.5506113008040533,0.07032312925170067,0.8906052393857272,0.6754322766570605,0.3952212895841282,0.2672141697055128,0.17924353674338253,0.10284178812800258,0.051790204765896304
0.07846978758506908,0.7813572245520396,0.9102607289631475,0.54928956933583,0.06921768707482993,0.8929539295392954,0.675792507204611,0.3971766501335368,0.26856249808476085,0.1809711852903067,0.10463317319436526,0.05490360435875943
0.07022066405444422,0.7766869996187571,0.9123492555413325,0.5563388038330213,0.06454081632653061,0.8922312556458898,0.6516570605187321,0.3895936665394888,0.26427236233260815,0.17776269513173323,0.10043970360719809,0.049994012693090645
0.06784904103938956,0.7760198246282881,0.9134272047429766,0.5579909681683005,0.06284013605442176,0.8925925925925927,0.6350864553314122,0.3841568103777184,0.261545061747311,0.17467760844079722,0.09730477974106341,0.04562327864926356
0.07774798927613939,0.7825962638200534,0.9116081654652024,0.5488489921797555,0.06811224489795918,0.8944896115627824,0.6322046109510087,0.38458603586417406,0.262556308031747,0.1763127043869933,0.09909616480742608,0.048197820620285
0.0889874200866158,0.7890773922988943,0.9088459206359899,0.5391562947461174,0.07440476190476193,0.8956639566395664,0.6381484149855908,0.3902136589088135,0.2659884166334692,0.18047757141975693,0.10402247373992346,0.0545443659441983
0.08702825324809238,0.7926038886770872,0.9126187428417435,0.5381649961449498,0.07125850340136056,0.8999096657633243,0.6413004322766571,0.39412438000763067,0.2681028406827445,0.18269883383723085,0.10683169123035581,0.058555861573464256
0.07207671684883481,0.7880289744567289,0.9191538098767095,0.5488489921797555,0.06096938775510205,0.9020776874435411,0.6326548991354467,0.38825829835940484,0.26522232096344195,0.17921268587647315,0.10308606790977931,0.051670458627709255
0.0625902247886162,0.7807853602744949,0.9201643872532507,0.558101112457319,0.05637755102040815,0.8993676603432701,0.6284221902017292,0.3841568103777184,0.2639965678913983,0.17785524773246134,0.1008061232798632,0.04556340558017004
0.07145803258403795,0.7842165459397636,0.9168631678232163,0.551272166538165,0.06215986394557825,0.898825654923216,0.6283321325648416,0.3849675696299123,0.2640578555450005,0.17865737027210468,0.10153896262519338,0.04706023230750808
0.08558465663023304,0.7937476172321768,0.9143704102944149,0.5382751404339685,0.06955782312925171,0.9016260162601626,0.635806916426513,0.390309042350248,0.2659577728066681,0.18090948355648798,0.10483673967917922,0.05394563525326308
0.08280057743864713,0.7922226458253907,0.915111500370545,0.5406983147923781,0.06794217687074831,0.9014453477868112,0.6364373198847263,0.39049980923311717,0.2648852388686299,0.17961374714629486,0.10398176044296066,0.053526523769608425
0.07176737471643638,0.769443385436523,0.906218419456983,0.5596431325035797,0.0689625850340136,0.884643179765131,0.6249099423631124,0.38267836703548264,0.26041124015567063,0.1739988893687913,0.09693836006839832,0.04538378637288948
0.07063312023097547,0.750095310712924,0.8932830290372566,0.5715387157175901,0.07670068027210884,0.8668473351400181,0.6161743515850144,0.3783861121709271,0.25774522722397575,0.1706669957425804,0.09331487663871019,0.04083343312178182
0.08393483192410807,0.7475219214639726,0.8828403961463316,0.5659213569776406,0.08877551020408164,0.8586269196025293,0.6210374639769453,0.3811522319725296,0.258848404988815,0.17233294255568585,0.09583910105040304,0.04526404023470243
0.09651474530831099,0.751429660693862,0.8773159064879067,0.5568895252781143,0.09744897959183675,0.8567299006323396,0.6356268011527378,0.389641358260206,0.2635062666625808,0.1773307829950022,0.10113182965556551,0.05412525446054365
0.09548360486698287,0.7483797178802898,0.8758337263356464,0.5592025553475052,0.0979591836734694,0.8542908762420958,0.6448126801152738,0.395173597863411,0.2659577728066681,0.18001480841611653,0.10426675352170019,0.05933421147168004
0.08352237574757682,0.7355127716355316,0.8745536616586943,0.5730807357638507,0.09379251700680273,0.8473351400180668,0.6371577809798271,0.3890213658908814,0.2628014586461558,0.17674461652372433,0.10084683657682599,0.05340677763142139
0.07816044545267065,0.7250285932138771,0.8706460958027353,0.5820024231743584,0.09404761904761906,0.8397470641373079,0.6318443804034583,0.3844906524227394,0.2592161309104281,0.1723637934225952,0.09571696115951468,0.04610226320201174
0.08548154258610023,0.7274113610369805,0.8674796200229064,0.5767154973014649,0.09906462585034015,0.8387533875338753,0.6379682997118156,0.38711369706219007,0.25985965127325106,0.1726106003578701,0.0950248351111473,0.04664112082385344
0.09486492060218601,0.7393252001524969,0.8698376339015023,0.5648199140874545,0.10144557823129251,0.8459801264679313,0.6536383285302594,0.3935520793590233,0.2633224037017743,0.1762510026531746,0.09958472437097954,0.05328703149323435
0.09187461332233451,0.7460922607701105,0.8765748164117766,0.5625068840180636,0.09600340136054422,0.8537488708220417,0.6569704610951009,0.3942197634490653,0.264578800600619,0.17825630900228298,0.10145753603126778,0.056160938809723386
0.0787791297174675,0.7359893252001525,0.877989624738934,0.5752836215442229,0.08971088435374149,0.8498644986449865,0.6476044668587897,0.3875429225486456,0.2609015413844882,0.174399950638613,0.09677550688054717,0.047838582205723866
0.07145803258403795,0.727125428898208,0.8765748164117766,0.5843154532437492,0.08758503401360544,0.8447154471544716,0.639949567723343,0.3818676077832888,0.25759200808997035,0.17069784660948975,0.09205276443286377,0.04089330619087535
0.08176943699731905,0.7371330537552421,0.8768443037121875,0.5730807357638507,0.09166666666666665,0.8496838301716352,0.6499459654178675,0.38530141167493326,0.2596451444856434,0.17322761769605727,0.09575767445647748,0.04652137468566639
0.08950299030727986,0.7585779641631719,0.886882705652496,0.5564489481220398,0.08852040816326531,0.8664859981933153,0.669128242074928,0.3968904998092332,0.26807219685594336,0.18124884309249092,0.1051624460548815,0.058555861573464256
0.08775005155702206,0.7675371711780404,0.8944283500640032,0.5522634651393324,0.08299319727891158,0.8758807588075881,0.6767831412103746,0.4012781381152232,0.2720865381668863,0.18501264885543287,0.10886735607849522,0.06256735720273021
0.06836461126005361,0.7566717499046893,0.8994138651216061,0.5688952527811432,0.07193877551020407,0.8740740740740741,0.6720100864553314,0.3946966806562381,0.26755125180032485,0.17949034367865738,0.10227180197052355,0.0540055083223566
0.056815838317178805,0.7504765535646206,0.9025803409014349,0.5785879502147814,0.06513605442176872,0.8732610659439928,0.6692182997118156,0.3902136589088135,0.2646400882542212,0.1757573887826248,0.09665336698965879,0.04514429409651539
0.061765312435553714,0.7610560426991994,0.9068247658829077,0.5698865513823108,0.06445578231292516,0.8811201445347786,0.6725504322766571,0.39121518504387637,0.2656819783654583,0.1774541864626396,0.09844475205602149,0.04514429409651539
0.07290162920189729,0.77582920320244,0.9099912416627366,0.5554576495208723,0.06709183673469389,0.8902439024390243,0.680385446685879,0.3978443342235788,0.26957374436919684,0.1809711852903067,0.10438889341258853,0.0540055083223566
0.07867601567333471,0.7789744567289364,0.9084416896853735,0.5505011565150346,0.07049319727891158,0.8906955736224029,0.6726404899135447,0.4003719954215948,0.2713510863236601,0.1830690442401432,0.10752381727872322,0.058376242366183696
0.0739327696432254,0.7776401067479985,0.9105975880886613,0.553805485185593,0.06709183673469389,0.8914182475158084,0.6479646974063401,0.3927890118275467,0.268286703643551,0.18155735176158455,0.1052031593518443,0.055741827326068735
0.07135491853990512,0.7767823103316813,0.9116081654652024,0.5556779380989095,0.0654761904761905,0.8917795844625112,0.6294128242074929,0.3852060282334987,0.2650384580026354,0.17908928240883573,0.10243465515837473,0.051670458627709255
0.07723241905547534,0.7839306138009913,0.9128882301421545,0.548408415023681,0.06709183673469389,0.8959349593495934,0.62914265129683,0.3876383059900801,0.2670303067447063,0.1812796939594003,0.10630241836983957,0.055023350496946476
0.08651268302742833,0.7947007243614181,0.9144377821195177,0.5371736975437823,0.06989795918367349,0.9021680216802167,0.6377881844380404,0.394172071728348,0.2715043054576656,0.18572221879434817,0.11135086719322529,0.061669261166327385
0.08383171787997525,0.7919367136866183,0.9141682948191066,0.5402577376363035,0.0689625850340136,0.9006323396567298,0.6418407780979827,0.39503052270125905,0.27147366163086445,0.18599987659653242,0.11155443367803924,0.06202849958088851
0.06888018148071767,0.7759245139153641,0.912753486491949,0.5574402467232074,0.06369047619047619,0.8921409214092141,0.6292327089337176,0.3866844715757345,0.26611099194067356,0.18078608008885053,0.10483673967917922,0.05304753921686026
0.06393070736234274,0.7713495996950057,0.9126861146668463,0.5628373168851195,0.06164965986394557,0.8898825654923216,0.6210374639769453,0.38143838229683336,0.26212729445653177,0.1776392916640958,0.10023613712238416,0.04634175547838583
0.07228294493710044,0.7767823103316813,0.9110691908643805,0.5551272166538164,0.066156462585034,0.8914182475158084,0.6232889048991355,0.3833460511255246,0.2631078969141667,0.17884247547356086,0.10206823548570962,0.0504131241767453
0.0824912353062487,0.78021349599695,0.9068247658829077,0.5477475492895694,0.07304421768707482,0.8901535682023487,0.6284221902017292,0.387447539107211,0.2657126221922594,0.1814339482939471,0.1055288657275466,0.057418273260687346
0.08259434935038153,0.7634388105223028,0.8948325810146196,0.5574402467232074,0.08061224489795918,0.8741644083107497,0.6358969740634006,0.3901182754673788,0.2669690190911041,0.18217436909977172,0.1069538311212442,0.05957370374805413
0.07207671684883481,0.7303659931376285,0.8783938556895505,0.582112567463377,0.08673469387755102,0.8475158084914183,0.6296829971181557,0.3869706219000381,0.26295467778016124,0.17782439686555196,0.10121325624949105,0.051909950904083346
0.06599298824499897,0.7111132291269537,0.8687596846998585,0.5965414693248154,0.09022108843537417,0.8318879855465221,0.625450288184438,0.38434757726058755,0.2601048018876597,0.17433824890479424,0.09771191271069128,0.04538378637288948
0.07692307692307691,0.7115897826915744,0.8619551303644816,0.5903733891397731,0.09906462585034015,0.8275519421860884,0.6353566282420751,0.38778138115223204,0.26234180124413936,0.17600419571789971,0.09958472437097954,0.0490360435875943
0.0871313672922252,0.7130194433854364,0.8562958970558512,0.584095164665712,0.10680272108843537,0.8244805781391147,0.650756484149856,0.39488744753910726,0.26629485490148014,0.17998395754920715,0.1051624460548815,0.0597533229553347
0.09012167457207672,0.7131147540983606,0.8544768577780771,0.5824430003304328,0.10918367346938775,0.8232158988256549,0.6548090778097982,0.39674742464708124,0.2673980326663194,0.18177330782995008,0.10658741144857908,0.06238773799544965
0.0843472881006393,0.7059664506290506,0.8531294212760224,0.5897125234056614,0.1076530612244898,0.8189701897018972,0.644092219020173,0.3903567340709653,0.26353691048938194,0.1783488616030111,0.10206823548570962,0.05580170039516226
0.08125386677665498,0.7045367899351886,0.8541399986525635,0.5921356977640709,0.10578231292517008,0.8189701897018972,0.63742795389049,0.3849675696299123,0.26099347286489144,0.17544888011353124,0.09820047227424476,0.05143096635133518
0.0928026397195298,0.7185474647350361,0.8564306407060567,0.5779270844806697,0.10909863945578233,0.8271906052393857,0.644542507204611,0.3894028996566196,0.26430300615940927,0.17912013327574508,0.10190538229785848,0.0559214465333493
0.10032996494122498,0.7329393823865802,0.8617530148891733,0.5654807798215662,0.108843537414966,0.8375790424570911,0.6612031700288185,0.3979874093857307,0.26920601844758374,0.1833775529092368,0.10752381727872322,0.06304634175547838
0.09507114869045165,0.7304613038505527,0.8634373105167419,0.5697764070932921,0.10561224489795917,0.8374887082204155,0.6693083573487032,0.3990366272415109,0.26963503202279904,0.1830690442401432,0.10719811090302092,0.0622679918572626
0.07816044545267065,0.7193099504384292,0.8666037862965708,0.5853067518449169,0.09659863945578233,0.8343270099367661,0.6626440922190202,0.3927890118275467,0.2647013759078234,0.17859566853828596,0.10052113020112367,0.05298766614776674
0.06898329552485047,0.7185474647350361,0.8720609041298929,0.5905936777178102,0.08937074829931974,0.8375790424570911,0.6620136887608069,0.38921213277375055,0.2636594857965863,0.17714567779354604,0.09758977281980294,0.04807807448209796
0.07352031346669417,0.7354174609226076,0.8810213568685575,0.578367661636744,0.08562925170068027,0.8515808491418247,0.673721181556196,0.39364746280045787,0.26516103330983976,0.17952119454556678,0.1003989903102353,0.05292779307867321
0.07805733140853785,0.7566717499046893,0.893148285387051,0.5637184711972684,0.0798469387755102,0.869828364950316,0.6857889048991355,0.4008489126287677,0.27095271657524594,0.18525945579070774,0.10825665662405341,0.06268710334091726
0.07465456795215508,0.7649637819290888,0.9011655325742773,0.5607445753937659,0.0733843537414966,0.8791327913279133,0.6851585014409223,0.40113506295307133,0.2723623326080961,0.18646263960017279,0.11037374806611838,0.064722787690097
0.057434522581975664,0.7503812428516966,0.902041366300613,0.578367661636744,0.06573129251700682,0.8728093947606144,0.6664265129682998,0.39188286913391834,0.26693837526430303,0.18189671129758747,0.10353391417637,0.05436474673691774
0.05238193441946793,0.7441860465116278,0.901030788924072,0.584645886110805,0.0642857142857143,0.8691960252935863,0.6415706051873199,0.38210606638687533,0.26200471914932744,0.17757758993027706,0.09868903183779822,0.04694048616932104
0.06712724273045988,0.7562905070529927,0.8999528397224281,0.5697764070932921,0.07100340136054423,0.8742547425474254,0.6349963976945245,0.3840137352155666,0.263873992584194,0.18023076448448205,0.10296392801889097,0.05430487366782421
0.08269746339451434,0.7682996568814334,0.8982685440948595,0.5545764952087233,0.07848639455782314,0.8787714543812105,0.6434618155619597,0.39245516978252576,0.2688382925259707,0.18532115752452646,0.10980376190863934,0.06430367620644234
0.08280057743864713,0.7666793747617232,0.8970558512430102,0.5553475052318537,0.07933673469387756,0.8772357723577237,0.6423811239193085,0.39288439526898133,0.26957374436919684,0.18646263960017279,0.11053660125396952,0.06484253382828405
0.07053000618684264,0.7548608463591306,0.8967189921174964,0.5687851084921247,0.07448979591836734,0.8713640469738031,0.6346361671469741,0.3878767645936666,0.26623356724787794,0.1828222373048683,0.10609885188502564,0.057178780984313254
0.06289956692101466,0.7480937857415173,0.8969211075928045,0.5768256415904834,0.0711734693877551,0.8682926829268292,0.6251801152737753,0.38367989317054557,0.2640578555450005,0.17961374714629486,0.10243465515837473,0.051909950904083346
0.07496391008455351,0.7529546321006481,0.8924745671360236,0.5674633770239013,0.07899659863945578,0.8675700090334236,0.6301332853025937,0.38735215566577647,0.2654674715778507,0.18183500956376877,0.10556957902450939,0.056999161777032695
0.08950299030727986,0.7565764391917651,0.8855352691504412,0.5576605353012446,0.08937074829931974,0.8646793134598013,0.6410302593659943,0.39660434948492945,0.2707994974412405,0.18649349046708216,0.11240941291425778,0.06580050293378038
0.08960610435141265,0.750095310712924,0.880886613218352,0.5614054411278775,0.0923469387755102,0.858446251129178,0.646613832853026,0.3997043113315529,0.27269941470290815,0.18809773554636888,0.11371223841706701,0.0672374565920249
0.07919158589399876,0.7352268394967593,0.8771137910125985,0.5755039101222601,0.09039115646258504,0.8489611562782294,0.6395893371757926,0.3949351392598245,0.2693592375815892,0.18473499105324862,0.10817523003012783,0.060292180577176384
0.07774798927613939,0.7267441860465115,0.8721956477800983,0.5811212688622094,0.09294217687074831,0.841553748870822,0.6344560518731989,0.3920736360167875,0.2666319369962922,0.18189671129758747,0.10475531308525363,0.055023350496946476
0.08599711280676427,0.7301753717117804,0.8692312874755778,0.5748430443881484,0.09821428571428573,0.8411924119241193,0.645443083573487,0.39684280808851585,0.26914473079398155,0.18374776331214912,0.10829736992101618,0.057897257813435514
0.09775211383790473,0.7380861608844833,0.8670753890722899,0.5639387597753056,0.10442176870748297,0.8435411020776874,0.661563400576369,0.40652422739412436,0.2744767566573714,0.18927006848892458,0.11493363732595063,0.0680158064902407
0.09620540317591256,0.7261723217689667,0.8596644883109884,0.5716488600066086,0.10850340136054422,0.8328816621499547,0.6657060518731989,0.40938573063716144,0.27573315355621614,0.18957857715801818,0.11481149743506228,0.0696922524248593
0.08125386677665498,0.7028211971025542,0.8529273058007141,0.5931269963652385,0.10654761904761906,0.8173441734417345,0.6528278097982709,0.39975200305227016,0.2687770048723685,0.1831307459739619,0.1058952854002117,0.05705903484612621
0.06908640956898329,0.6950057186427754,0.8553526915044127,0.6041414252670998,0.09999999999999999,0.8152664859981933,0.6468840057636888,0.39245516978252576,0.2641804308522049,0.1787807737397421,0.10064327009201203,0.05047299724583882
0.08011961229119405,0.7102554327106366,0.8589233982348582,0.5893820905386056,0.10229591836734693,0.8249322493224933,0.6524675792507205,0.3944582220526517,0.2670915943983085,0.18152650089467515,0.10442960670955131,0.05580170039516226
0.09197772736646731,0.7296988181471596,0.8649194906690021,0.5718691485846458,0.10340136054421768,0.8381210478771455,0.6633645533141211,0.40089660434948493,0.27297520914411794,0.1867094465354477,0.1120022799446299,0.0663992336247156
0.08599711280676427,0.7389439573008005,0.8753621235599272,0.5697764070932921,0.09438775510204084,0.8495031616982835,0.6667867435158502,0.39755818389927505,0.2723623326080961,0.18646263960017279,0.11245012621122057,0.06568075679559335
0.06393070736234274,0.748570339306138,0.896584248467291,0.5759444872783346,0.07185374149659865,0.8682926829268292,0.6622838616714698,0.3856352537199543,0.2664480740354856,0.1822977725674092,0.10524387264880708,0.053227158424140816
0.03722416993194473,0.7810712924132672,0.9370073435289362,0.5714285714285714,0.035374149659863956,0.910840108401084,0.6637247838616714,0.37046928653185807,0.2593387062176325,0.17760844079718643,0.09718263985017504,0.03801939887438631
0.029799958754382346,0.8072817384674037,0.9603853668395876,0.5601938539486727,0.01751700680272109,0.9389340560072268,0.6904719020172911,0.37294925600915685,0.26611099194067356,0.18603072746344176,0.10210894878267242,0.037660160459825176
0.05929057537636626,0.8265345024780785,0.9546587617058545,0.5334287917171494,0.03324829931972791,0.9441734417344173,0.7463976945244958,0.41830408241129347,0.3061318297428983,0.22993151107546128,0.14327009201205113,0.07549994012693091
0.1315735203134667,0.8419748379717881,0.9184127198005794,0.48584645886110805,0.08596938775510204,0.9271906052393858,0.7875540345821326,0.4963754292254865,0.38926853185425797,0.3248287776886531,0.23397931764514288,0.15944198299604836
0.240977521138379,0.8428326343881052,0.8475375597924948,0.42691926423614934,0.17576530612244898,0.8800361336946704,0.7703530259365996,0.5742083174360931,0.4956026108540435,0.4560375146541618,0.35782916700594414,0.2754161178301999
0.38719323571870484,0.8537933663743804,0.7597520716836218,0.3424385945588721,0.29149659863945576,0.8264679313459802,0.7014589337175793,0.6572872949256009,0.626543682775105,0.613747146294811,0.5054962950899764,0.42114716800383184
0.5623839967003506,0.9084064048799085,0.6838240247928316,0.2174248265227448,0.4116496598639455,0.8013550135501355,0.6121217579250721,0.7428462418924074,0.7561364263169186,0.7694206207194424,0.6565426268219201,0.5833433121781822
0.7315941431222932,0.9793175752954631,0.6234588695007748,0.08602268972353788,0.5195578231292516,0.7944896115627824,0.4892831412103747,0.7883441434566959,0.8308767198847793,0.8660763867464677,0.770092012051136,0.7265596934498861
0.870282532480924,1.0,0.5474634507848817,0.0,0.6246598639455782,0.7533875338753387,0.3247478386167147,0.7817626859977108,0.8539821652928019,0.8974825692601962,0.8321390766224248,0.8315171835708298
0.8665704268921427,0.9299466260007624,0.5003031732129622,0.04251569556118506,0.652891156462585,0.6885275519421861,0.21875,0.69768218237314,0.7882511568044618,0.8238415499475535,0.776972559237847,0.804454556340558
0.7101464219426685,0.7979412886008387,0.509263625951627,0.20233505892719464,0.5827380952380952,0.6319783197831979,0.10797910662824212,0.4655665776421213,0.5569515521098276,0.6093046214598631,0.589894959693836,0.6373488205005389
0.48927613941018766,0.7538124285169653,0.6223809202991308,0.34574292322943045,0.4202380952380952,0.6869918699186992,0.018731988472622467,0.19310377718428082,0.24937946250727794,0.3130437465292775,0.3262763618597834,0.38911507603879775
0.3035677459269952,0.7769729317575296,0.7601563026342383,0.4315453243749311,0.2568027210884354,0.7902439024390243,0.0,0.037390309042350245,0.035301688474856756,0.07311655457518358,0.09669408028662159,0.1634534786253143
0.24407094246236338,0.7574342356080823,0.7851512497473556,0.4746117413812093,0.21649659863945578,0.7978319783197831,0.08267291066282426,0.08360358641739798,0.03818220819415925,0.04226568766582343,0.047023857992020184,0.09950904083343312
0.2109713342957311,0.7440907357987038,0.797345550090952,0.49994492785549066,0.19515306122448978,0.7996386630532971,0.24396613832853023,0.2102727966425029,0.136150522477247,0.10942802492750049,0.08346225877371548,0.1044186324991019
0.15951742627345844,0.7315097216927181,0.8220036380785556,0.5347505231853729,0.15833333333333333,0.8102077687443541,0.40507925072046114,0.31252384586035864,0.21015536420188155,0.15712346516937128,0.10434818011562573,0.09292300323314572
0.13301711693132603,0.7195958825772016,0.8310314626423229,0.5557880823879282,0.1417517006802721,0.8105691056910569,0.5263868876080692,0.37738458603586417,0.25474213219746883,0.18084778182266925,0.11232798632033221,0.07933181654891629
0.13116106413693543,0.7051086542127334,0.8219362662534527,0.5651503469545104,0.14668367346938774,0.7976513098464318,0.5980727665706053,0.4101487981686379,0.27545735911500635,0.1917998395754921,0.11831284097386205,0.08250508921087295
0.11713755413487317,0.6938619900876858,0.8231489591053022,0.5791386716598744,0.1401360544217687,0.7931345980126467,0.6339157060518732,0.41458412819534535,0.2774492078570772,0.1889307089529216,0.11456721765328555,0.07693689378517543
0.08981233243967829,0.6722264582539077,0.8257090884592063,0.6062341667584534,0.12721088435374148,0.7846431797651309,0.6508465417867435,0.4090995803128577,0.2720865381668863,0.1798914049484791,0.10267893494015144,0.061429768889953294
0.07166426067230358,0.6583110941669843,0.8277302432122886,0.6239673972904505,0.11853741496598641,0.7793134598012647,0.664085014409222,0.40628576879053796,0.26657064934269,0.17187017955204545,0.0919306245419754,0.046162136271105256
0.06867395339245204,0.6611704155547082,0.8317051808933504,0.6239673972904505,0.11479591836734693,0.7833785004516711,0.6825468299711815,0.40924265547500954,0.26654000551588886,0.1694946628000247,0.08895855386369186,0.042210513710932825
0.07269540111363167,0.6716545939763628,0.8364885804756451,0.6157065756140543,0.11343537414965986,0.7915989159891599,0.69992795389049,0.4138687523845861,0.26920601844758374,0.17072869747639913,0.08969139320902207,0.044306071129206086
0.060012373685295946,0.6644109797941288,0.8396550562554739,0.6267210045159158,0.10620748299319728,0.7902439024390243,0.7074927953890491,0.41253338420450214,0.267581895627126,0.16745850558400693,0.0857422034036316,0.037660160459825176
0.04052381934419468,0.6466831871902401,0.8398571717307821,0.6473179865623967,0.09804421768707482,0.7819331526648601,0.6983969740634006,0.40409194963754297,0.2612999111329023,0.1599000431912137,0.07593029883559968,0.02430846605196983
0.03547123118168695,0.6422035836828058,0.8399919153809876,0.6526049124352902,0.09583333333333333,0.7799457994579945,0.6905619596541788,0.4003719954215948,0.2593080623908314,0.1570617634355526,0.07165540265450694,0.02011735121542331
0.04908228500721799,0.6644109797941288,0.8467964697163646,0.6324485075448838,0.09719387755102042,0.7950316169828365,0.6983069164265131,0.4061903853491034,0.2636901296233874,0.16110322700067875,0.0766631381809299,0.02658364267752365
0.059703031552897516,0.6870949294700723,0.8558916661052348,0.6137239784117193,0.09583333333333333,0.8118337850045168,0.7075828530259366,0.4133918351774132,0.26957374436919684,0.16662553217745424,0.08439866460385959,0.03478625314333613
0.05465044339038978,0.6930041936713686,0.8633699386916391,0.612952968388589,0.08903061224489796,0.8196928635953025,0.7080331412103746,0.41463181991606257,0.2708607850948427,0.16742765471709758,0.08562006351274325,0.03604358759430008
0.04186430191792122,0.6865230651925276,0.8672101327224955,0.6236369644233946,0.08129251700680273,0.8192411924119242,0.6955151296829971,0.40876573826783674,0.26782704624153464,0.1637872524217931,0.08016448171972963,0.02796072326667465
0.03732728397607754,0.684712161646969,0.8688270565249612,0.6270514373829716,0.07840136054421769,0.8194218608852755,0.6899315561959655,0.40633346051125524,0.26681579995709864,0.16227555994323445,0.07780311049588794,0.023889354568315174
0.04372035471231182,0.6945291650781547,0.8715219295290709,0.6179094613944266,0.07933673469387756,0.825925925925926,0.7022694524495678,0.4131533765738268,0.271320442496859,0.1653297957672611,0.08110088754987378,0.02796072326667465
0.04836048669828831,0.6960541364849407,0.8696355184261941,0.6146051327238682,0.08248299319727889,0.825293586269196,0.7213616714697406,0.42378863029378105,0.27683633132105545,0.16977232060220895,0.08623076296718508,0.034427014728775
0.046298205815632085,0.6850934044986655,0.8632351950414336,0.622094944377134,0.08562925170068027,0.8158988256549232,0.7191102305475505,0.42383632201449833,0.2761621671314314,0.1681063737891035,0.08427652471297124,0.03370853789965274
0.037430398020210344,0.6693671368661837,0.857912820858317,0.6358629805044608,0.08528911564625849,0.804878048780488,0.7047910662824207,0.4162056466997329,0.2708914289216438,0.16304683161596845,0.0776402573080368,0.024727577535624476
0.034749432872757266,0.6643156690812047,0.856093781580543,0.6402687520652054,0.08537414965986395,0.8011743450767841,0.6971361671469741,0.41210415871804656,0.268286703643551,0.1610106743999507,0.07352821431479518,0.02011735121542331
0.042379872138585274,0.6687952725886389,0.8543421141278716,0.6335499504350699,0.08962585034013607,0.8021680216802167,0.704971181556196,0.41725486455551314,0.27095271657524594,0.16350959461960884,0.07633743180522758,0.025026942881092088
0.05114456588987419,0.6702249332825009,0.849558714545577,0.6280427359841392,0.09625850340136055,0.7996386630532971,0.7164085014409223,0.4246470812666921,0.27435418135016704,0.16696489171345716,0.08081589447113426,0.031612980481379484
0.04702000412456177,0.661646969119329,0.84619012329044,0.635202114770349,0.09668367346938775,0.7933152664859981,0.7137968299711817,0.42583937428462426,0.2745686881377747,0.16684148824581976,0.0803680482045436,0.031373488205005386
0.036399257578882245,0.6496378192908883,0.8446405713130768,0.6477585637184712,0.09328231292517009,0.7866305329719965,0.7055115273775218,0.4207840518885922,0.27193331903288087,0.16304683161596845,0.07544173927204623,0.024727577535624476
0.030006186842647973,0.6434426229508196,0.8444384558377687,0.6548077982156625,0.09081632653061222,0.7834688346883469,0.7065021613832853,0.41944868370850824,0.2707075659608372,0.16141173566977235,0.07279537496946502,0.019279128248114005
0.04186430191792122,0.647255051467785,0.839385568955063,0.6463266879612292,0.09880952380952382,0.7819331526648601,0.719200288184438,0.42874856924837856,0.27545735911500635,0.1637872524217931,0.07609315202345086,0.022871512393725306
0.050938337801608585,0.6520205871139915,0.8368254396011587,0.6387267320189447,0.10416666666666666,0.7824751580849142,0.7356808357348703,0.4393838229683327,0.2809732479392027,0.16727340038255079,0.0803680482045436,0.03065501137588313
0.045679521550835225,0.6410598551277163,0.8325136427945833,0.6478687080074897,0.10476190476190475,0.7743450767841011,0.747028097982709,0.4443437619229302,0.2831796034688812,0.1673968038501882,0.08028662161061802,0.030774757514070175
0.033408950299030724,0.6246664125047654,0.8289429360641379,0.6638396299151889,0.10195578231292515,0.7642276422764227,0.7488292507204611,0.4425791682563907,0.2807280973247939,0.16344789288579012,0.07503460630241837,0.022871512393725306
0.030727985151577642,0.6240945482272207,0.8302903725661928,0.6656019385394867,0.09999999999999999,0.7648599819331525,0.7532420749279539,0.44253147653567343,0.2802071522691754,0.16175109520577532,0.07157397606058138,0.018620524488085263
0.03753351206434316,0.6357224552039649,0.8340631947719462,0.6552483753717369,0.10042517006802722,0.7728997289972901,0.7672910662824208,0.4491129339946586,0.2838844114853063,0.16400320849015862,0.07360964090872077,0.022452400910070655
0.044442153021241486,0.6422988943957301,0.8341979384221518,0.6477585637184712,0.10314625850340135,0.7761517615176151,0.7807997118155621,0.4554082411293399,0.2877761774890449,0.16607021657308574,0.07613386532041365,0.026823134953897737
0.043926582800577436,0.6359130766298131,0.8300882570908845,0.6517237581231413,0.10552721088435375,0.7703703703703705,0.7823306916426513,0.4560759252193819,0.28756167070143723,0.16468192756216452,0.07417962706619981,0.02556580050293378
0.036296143534749435,0.6241898589401448,0.8267196658357475,0.6626280427359841,0.10450680272108843,0.7625112917795845,0.7714337175792508,0.4504959938954598,0.2837005485244997,0.16017770099339793,0.06786906603696767,0.018261286073524136
0.034749432872757266,0.6240945482272207,0.8276628713871859,0.6633990527591144,0.10331632653061222,0.7630532971996387,0.7654899135446687,0.448349866463182,0.28158612447522446,0.1573394212377368,0.065304128328312,0.014668901927912837
0.04289544235924933,0.6344834159359511,0.8296840261402681,0.6530454895913647,0.1054421768707483,0.7693766937669377,0.7725144092219021,0.4522605875619992,0.28351668556369325,0.15891281545011418,0.06778763944304209,0.020356843491797394
0.04949474118374922,0.6385817765916888,0.8283365896382133,0.647207842273378,0.10892857142857142,0.7704607046070461,0.786563400576369,0.4600343380389164,0.2868875065118132,0.16036280619485413,0.07088185001221396,0.025625673572027306
0.04475149515363993,0.6340068623713304,0.8280671023378023,0.6523846238572529,0.10722789115646257,0.7681120144534779,0.7918768011527378,0.46303891644410533,0.28737780774063065,0.15783303510828658,0.06839833889748392,0.022691893186444743
0.028768818313054233,0.6241898589401448,0.8316378090682477,0.6665932371406542,0.0983843537414966,0.7657633242999097,0.7863832853025937,0.4596051125524609,0.28440535654092486,0.15243413339914855,0.062087777868251745,0.013830678960603525
0.02567539698906991,0.6162790697674417,0.8279997305126995,0.6727613173256967,0.09931972789115646,0.759620596205962,0.7876440922190202,0.46089278901182756,0.28238286397205287,0.1490405380391189,0.05740574871753114,0.00868159501856066
0.040111363167663436,0.6227601982462828,0.8232163309304049,0.6614164555567793,0.10833333333333332,0.7594399277326106,0.8023234870317003,0.4726726440289966,0.2879600404498514,0.15295859813660767,0.06090709225633091,0.015267632618848042
0.053825531037327276,0.631528783835303,0.8204540861011924,0.6489701508976758,0.11573129251700681,0.7617886178861788,0.8200648414985591,0.4871232354063335,0.296264517512947,0.15894366631702353,0.06782835274000489,0.02574541971021435
0.053825531037327276,0.6234273732367517,0.8147274809674594,0.6537063553254763,0.11938775510204083,0.7541102077687445,0.8251080691642652,0.49470621900038153,0.29954340698066373,0.1599925957919418,0.06888689846103738,0.02885881930307748
0.04145184574138998,0.6029355699580632,0.8083271575826989,0.6721004515915849,0.11828231292517008,0.7401084010840108,0.8141210374639769,0.4933708508202976,0.29791928416020597,0.15622879002899984,0.06318703688624702,0.021793797150041913
0.039698906991132196,0.5877811666031261,0.7987603584181094,0.6817931490252229,0.1236394557823129,0.7264679313459802,0.8125900576368876,0.49737695536054943,0.2992063248858518,0.15521071142099097,0.06176207149254947,0.01814153993533709
0.05939368942049906,0.5923560808234845,0.7891261874284173,0.668685978632008,0.13775510204081634,0.7222222222222222,0.8225864553314122,0.5092998855398703,0.30628504887690383,0.1609798235330413,0.06819477241266995,0.02814034247395522
0.07908847184986594,0.6011246664125047,0.7824563767432459,0.6530454895913647,0.15008503401360543,0.7219512195121951,0.8287103746397695,0.5222720335749714,0.31547819691723106,0.16755105818473504,0.07694813125966937,0.042629625194587475
0.0813569808207878,0.5953107129241326,0.7768645152597183,0.6551382310827184,0.15459183673469387,0.7154471544715447,0.826098703170029,0.5268981304845479,0.31921674378696413,0.17032763620657743,0.08118231414379937,0.048557059034846126
0.07733553309960817,0.5844452916507815,0.7718116283770128,0.6636193413371516,0.15612244897959182,0.7068654019873533,0.8088976945244958,0.5234643265929035,0.3197070450157816,0.17109890787931142,0.08093803436202261,0.045982517063824696
0.08465663023303772,0.587018680899733,0.7688472680724919,0.6582222711752396,0.16096938775510203,0.7060523938572719,0.7947586455331412,0.5226058756199924,0.3228020715226918,0.17547973098044056,0.08541649702792932,0.04915578972578134
0.10507321097133429,0.6031261913839115,0.7669608569696152,0.6379557219958144,0.17057823129251698,0.7124661246612466,0.7933177233429396,0.5279950400610455,0.3294824257653296,0.1859073239958043,0.09787476589854245,0.06520177224284517
0.12074654567952155,0.6204727411361036,0.7689146398975948,0.6196717700187245,0.17585034013605444,0.7220415537488708,0.797550432276657,0.5339565051507059,0.3371433824656023,0.1980625655580922,0.11289797247781125,0.08262483534906
0.12373685295937306,0.6318147159740753,0.7750454759819444,0.6114109483423283,0.1732142857142857,0.7315266485998194,0.7880043227665707,0.5277088897367417,0.33809334109643613,0.20429444067378297,0.12059278560377819,0.09004909591665669
0.11425036089915447,0.6347693480747235,0.7832648386444789,0.6148254213019055,0.1641156462585034,0.7383920505871726,0.7636887608069165,0.5110167874856925,0.3325468084454387,0.2034306164003209,0.12071492549466654,0.08591785414920368
0.11156939575170138,0.6441097979412885,0.7916863167823216,0.6108602268972353,0.15773809523809523,0.7484191508581753,0.7485590778097984,0.4976631056848531,0.32825667269328596,0.20484975627815147,0.12270987704584316,0.08633696563285834
0.11981851928232626,0.6677468547464734,0.8028700397493769,0.5927965634981825,0.15399659863945578,0.7672086720867209,0.7463976945244958,0.49442006867607785,0.3294824257653296,0.21166779786512005,0.1324403550199495,0.09837145252065621
0.12445865126830274,0.6907167365611894,0.8160749174695141,0.5770459301685207,0.14761904761904762,0.7869015356820235,0.7466678674351586,0.49079549790156435,0.33030980908895907,0.21848583945208863,0.14139728035176286,0.10789127050652617
0.11765312435553724,0.697579107891727,0.8254396011587953,0.5767154973014649,0.1389455782312925,0.7963866305329721,0.7364913544668588,0.4812094620373903,0.325590659761591,0.2194422163262788,0.14306652552723717,0.1077715243683391
0.1060012373685296,0.6921463972550514,0.8292124233645489,0.586077761868047,0.13171768707482992,0.7963866305329721,0.7170389048991356,0.46599580312857686,0.31734747035209765,0.21444437588696244,0.13748880384333523,0.0986109447970303
0.10435141266240461,0.6931948150972168,0.8310314626423229,0.5862980504460843,0.12993197278911567,0.7981029810298103,0.7011887608069165,0.4559328500572301,0.3125057457175252,0.21240821867094467,0.1347610129468284,0.09292300323314572
0.11136316766343576,0.7030118185284024,0.8333894765209189,0.5769357858795021,0.13129251700680272,0.8043360433604335,0.7065021613832853,0.45555131629149187,0.3131492660803481,0.21552415622879006,0.1389544825339956,0.09885043707340438
0.11909672097339657,0.7095882577201676,0.8329178737451997,0.5690053970701618,0.13477891156462585,0.8071364046973803,0.7081231988472623,0.4561713086608165,0.31382343026997217,0.21796137471462954,0.14327009201205113,0.10645431684828163
0.11383790472262321,0.7051086542127334,0.8332547328707135,0.574402467232074,0.13239795918367347,0.8052393857271906,0.6983969740634006,0.4498283098054178,0.31011552722704017,0.21607947183315854,0.1420079798062047,0.10322117111723146
0.09888636832336564,0.6910979794128859,0.8331199892205079,0.5904835334287917,0.12636054421768708,0.7985546522131889,0.6833573487031701,0.4392407478061809,0.3025465020071707,0.21024865798728948,0.13541242569823303,0.09435995689139025
0.092699525675397,0.7003431185665268,0.8436299939365356,0.5883907919374379,0.11709183673469388,0.809936766034327,0.6715597982708934,0.42946394505913776,0.29666288726136125,0.20488060714506082,0.12906115137203808,0.08651658484013891
0.09723654361724067,0.7121616469691192,0.849019739944755,0.5791386716598744,0.11564625850340135,0.8191508581752484,0.680835734870317,0.43017932086989696,0.29724511997058195,0.20617634355525394,0.13097467632928914,0.08909112681116034
0.10094864920602187,0.7182615325962638,0.8509735228727346,0.5737416014979623,0.11590136054421768,0.8233062330623306,0.6907420749279539,0.43428080885158343,0.29889988661784084,0.20889121984327763,0.13427245338327495,0.09352173392408095
0.08888430604248297,0.7058711399161265,0.8501650609715017,0.5872893490472518,0.11139455782312924,0.8169828364950316,0.6904719020172911,0.43280236550934753,0.2967241749149634,0.20722527303017219,0.1317889422685449,0.09094719195305952
0.07331408537842854,0.6888105223027068,0.8481439062184194,0.6054631567353232,0.10629251700680273,0.8074977416440831,0.6868695965417868,0.42722243418542544,0.29218888854840197,0.20222743259085585,0.12466411530005699,0.08148724703628307
0.06733347081872551,0.6808997331300037,0.8465269824159536,0.6132834012556448,0.1048469387755102,0.8026196928635954,0.6892110951008646,0.4260301411674933,0.2904115465939387,0.19957425803665085,0.12047064571288982,0.07514070171236976
0.07506702412868632,0.688333968738086,0.8466617260661591,0.6048022910012115,0.10790816326530613,0.806323396567299,0.7000180115273776,0.4313239221671118,0.2934452854472467,0.20253594125994942,0.12380913606383845,0.08046940486169321
0.08321303361517839,0.6915745329775066,0.8436973657616385,0.5986342108161692,0.11318027210884354,0.8057813911472449,0.7092939481268011,0.4397176650133537,0.2985934483498299,0.20663910655889434,0.12967185082647992,0.08867201532750568
0.08042895442359248,0.6824247045367898,0.8390487098295493,0.6053530124463047,0.11496598639455784,0.7983739837398375,0.704971181556196,0.44038534910339566,0.299267612539454,0.2070710186956254,0.1304046901718101,0.08903125374206682
0.06939575170138172,0.6676515440335493,0.8357474903995149,0.6197819143077431,0.11249999999999999,0.7891598915989161,0.6910122478386168,0.4332315909958031,0.2944565317316827,0.20275189732831495,0.12523410145753602,0.08058915099988026
0.06578676015673333,0.6648875333587494,0.836219093175234,0.6233065315563387,0.11071428571428572,0.7881662149954833,0.6852485590778099,0.4302270125906143,0.29280176508442374,0.20127105571666565,0.12303558342154547,0.07544006705783739
0.075788822437616,0.6752764010674799,0.8370949269015696,0.6119616697874215,0.11428571428571428,0.7936766034327009,0.6947046109510088,0.4375238458603587,0.2971225446633776,0.205497624483248,0.1280433189479684,0.08256496227996646
0.08661579707156115,0.6879527258863894,0.8389139661793438,0.5988544993942064,0.11760204081632653,0.8009033423667569,0.704971181556196,0.4440099198779092,0.301994913124751,0.21043376318874563,0.1341503134923866,0.09058795353849837
0.08146009486492059,0.6843309187952725,0.8397224280805766,0.6037008481110254,0.11496598639455784,0.7997289972899729,0.705421469740634,0.4431991606257154,0.3026690773143751,0.21213056086876045,0.1345167331650517,0.09064782660759191
0.06867395339245204,0.6749904689287075,0.8414740955332479,0.6159268641920916,0.10858843537414964,0.7964769647696477,0.6981268011527378,0.43776230446394504,0.2994514755002605,0.20904547417782443,0.13060825665662404,0.0834630583163693
0.06496184780367086,0.6727983225314524,0.8423499292595836,0.6191210485736315,0.1064625850340136,0.7960252935862693,0.6977665706051873,0.4360930942388402,0.29810314712101255,0.20750293083235644,0.12889829818418694,0.0801700395162256
0.07331408537842854,0.6849980937857414,0.8455164050394124,0.6076660425156954,0.10790816326530613,0.8038843721770552,0.7136167146974064,0.4427222434185426,0.3024239266999663,0.21120503486147962,0.1337838938197215,0.08651658484013891
0.07857290162920191,0.6931948150972168,0.8478744189180084,0.6001762308624298,0.10858843537414964,0.8093947606142727,0.7285662824207493,0.44916062571537585,0.3065301994913125,0.21533905102733392,0.138303069782591,0.09388097233864208
0.07434522581975665,0.6879527258863894,0.84693121336657,0.6054631567353232,0.10748299319727889,0.8062330623306232,0.7279358789625361,0.44672834795879435,0.30423191248123066,0.21336459554513484,0.13626740493445158,0.09070769967668542
0.06155908434728811,0.6747045367899351,0.8459206359900289,0.6198920585967618,0.10280612244897958,0.79936766034327,0.7184798270893373,0.4407668828691339,0.30034014647749213,0.20873696550873083,0.13028255028092173,0.08286432762543407
0.06568364611260054,0.6737514296606938,0.8425520447348919,0.6182398942614825,0.1066326530612245,0.7966576332429991,0.7171289625360231,0.4396222815719191,0.29957405080746485,0.2080582464367249,0.12840973862063348,0.0807088971380673
0.08125386677665498,0.6866183759054516,0.8414067237081453,0.6024892609318206,0.11386054421768708,0.8018970189701896,0.7234329971181557,0.4439145364364746,0.301994913124751,0.21222311346948852,0.1344760198680889,0.08957011136390851
0.09517426273458444,0.6997712542889819,0.8416762110085563,0.5873994933362705,0.11938775510204083,0.8084010840108401,0.7259546109510088,0.44753910721098816,0.3050592958048602,0.21685074350589253,0.1409087207882094,0.0980720871751886
0.0929057537636626,0.7025352649637818,0.8451795459138989,0.5870690604692146,0.11624149659863946,0.8120144534778682,0.7174891930835735,0.4430560854635635,0.3036190359452089,0.21617202443388664,0.1412751404608745,0.09867081786612382
0.07805733140853785,0.6891917651544033,0.845381661389207,0.6027095495098579,0.10994897959183675,0.8057813911472449,0.6996577809798271,0.43037008775276614,0.29592743541813504,0.20981674585055843,0.1337838938197215,0.08861214225841217
0.07248917302536606,0.6773732367518108,0.8406656336320151,0.6125123912325146,0.11071428571428572,0.797018970189702,0.692092939481268,0.4229301793208699,0.2909631354763583,0.2048189054112421,0.12779903916619167,0.08190635851993773
0.0805320684677253,0.6833778116660312,0.8395876844303712,0.6048022910012115,0.11462585034013606,0.7991869918699188,0.6951548991354467,0.42431323922167113,0.29228082002880523,0.20518911581415442,0.1300789837961078,0.08507963118189439
0.08527531449783461,0.6982462828821959,0.8470659570167757,0.5935675735213128,0.11190476190476192,0.8112014453477868,0.6971361671469741,0.4257916825639069,0.29347592927404775,0.2063614487567101,0.13284748798957738,0.09070769967668542
0.07527325221695194,0.6927182615325962,0.8496260863706798,0.6021588280647648,0.10612244897959182,0.8103884372177055,0.6887608069164266,0.42087943533002675,0.28949223178990596,0.20364657246868642,0.12885758488722415,0.08657645790923242
0.06124974221488966,0.6776591688905832,0.8482112780435223,0.6183500385505012,0.10127551020408164,0.8022583559168925,0.6708393371757926,0.4100534147272034,0.28226028866484854,0.19778490775590798,0.12120348505822,0.07723625913064304
0.06269333883274902,0.6780404117422797,0.8475375597924948,0.6173587399493335,0.10229591836734693,0.8019873532068654,0.6653458213256485,0.4070011446012972,0.2799313578279656,0.19577960140679956,0.11933067339793174,0.0749610825050892
0.07352031346669417,0.683282500953107,0.8441689685373577,0.6085471968278444,0.108843537414966,0.8022583559168925,0.6787644092219021,0.41520412056467,0.2842827812337205,0.20009872277410998,0.12413484243954073,0.08106813555262843
0.07888224376160033,0.6858558902020586,0.8424173010846864,0.6041414252670998,0.11215986394557824,0.8022583559168925,0.6905619596541788,0.4241701640595193,0.2895841632703092,0.20478805454433271,0.1297532774204055,0.08801341156747695
0.07321097133429572,0.6802325581395348,0.8422151856093781,0.6104196497411609,0.11003401360544217,0.7994579945799458,0.6902017291066282,0.42479015642884405,0.28989060153832014,0.20438699327451104,0.12893901148114972,0.08657645790923242
0.06496184780367086,0.6699390011437284,0.8402614026813987,0.6208833571979292,0.10782312925170066,0.7932249322493226,0.6788544668587896,0.4193056085463564,0.28679557503140996,0.20083914357993463,0.12535624134842438,0.07999042030894504
0.06929263765724893,0.6691765154403354,0.8369601832513642,0.6189007599955942,0.11173469387755101,0.790695573622403,0.6717399135446687,0.41758870660053415,0.2860294793613827,0.20022212624174743,0.1242569823304291,0.07849359358160699
0.0813569808207878,0.6775638581776591,0.8350064003233847,0.6076660425156954,0.1179421768707483,0.7934056007226739,0.6802053314121038,0.42169019458222057,0.2887261361198787,0.20253594125994942,0.1277583258692289,0.08460064662914621
0.08640956898329552,0.6798513152878383,0.8333221046958161,0.6035907038220067,0.12108843537414968,0.7933152664859981,0.6920028818443804,0.42555322396032047,0.2900438206723256,0.20447954587523914,0.13048611676573568,0.08986947670937612
0.07671684883481131,0.6682234083110941,0.8314356935929393,0.6155964313250357,0.11828231292517008,0.7865401987353207,0.6921829971181557,0.42331171308660814,0.28805197193025467,0.2017955204541248,0.12796189235404282,0.08615734642557778
0.06094040008249123,0.6550705299275638,0.8324462709694804,0.6315673532327348,0.11113945578231291,0.7809394760614273,0.6847082132564842,0.4179225486455551,0.28357797321729544,0.1971678904177208,0.12165133132481067,0.07615854388695964
0.05465044339038978,0.6598360655737704,0.8399245435558849,0.6322282189668464,0.10374149659863946,0.788256549232159,0.6863292507204611,0.4171117893933613,0.28308767198847795,0.19658172394644294,0.11965637977363405,0.07238654053406778
0.06320890905341307,0.6785169653069003,0.8475375597924948,0.6168080185042405,0.10255102040816326,0.8021680216802167,0.7016390489913545,0.42412247233880207,0.2886035608126743,0.20127105571666565,0.12580408761501505,0.08058915099988026
0.0758919364817488,0.6913839115516583,0.8483460216937276,0.6025994052208393,0.10722789115646257,0.8088527551942186,0.7101945244956773,0.4293685616177032,0.2923421076824074,0.20515826494724504,0.1317075156746193,0.08711531553107413
0.07259228706949887,0.6856652687762104,0.8464596105908508,0.6076660425156954,0.1070578231292517,0.804878048780488,0.705421469740634,0.42703166730255626,0.2905954095547452,0.20432529154069232,0.12991613060825666,0.08699556939288708
0.0625902247886162,0.6745139153640868,0.845112174088796,0.6194514814406873,0.10382653061224491,0.7986449864498645,0.6923631123919309,0.41973483403281187,0.28590690405417835,0.19988276670574445,0.12364628287598728,0.0782541013052329
0.06155908434728811,0.6752764010674799,0.8463248669406455,0.6195616257297059,0.10263605442176871,0.7999096657633243,0.6840778097982709,0.4166348721861885,0.2846505071553336,0.19840192509409518,0.12116277176125723,0.07514070171236976
0.0739327696432254,0.6836637438048035,0.8441015967122548,0.6081066196717699,0.10909863945578233,0.8023486901535682,0.6980367435158502,0.42226249523082793,0.2875310268746361,0.20065403837847848,0.12486768178487093,0.08106813555262843
0.08300680552691277,0.6872855508959206,0.8408003772822206,0.6011675294635973,0.11488095238095239,0.8018970189701896,0.7115453890489915,0.4296070202212896,0.29172923114638555,0.2045720984759672,0.1300789837961078,0.08831277691294456
0.07970715611466282,0.6840449866565002,0.8406656336320151,0.6048022910012115,0.11360544217687073,0.800271002710027,0.7051512968299712,0.4271270507439909,0.29071798486194955,0.20330721293268342,0.12857259180848463,0.08693569632379355
0.07083934831924107,0.6764201296225695,0.8410024927575287,0.6139442669897566,0.10977891156462584,0.7968383017163504,0.6926332853025937,0.4193533002670736,0.28535531517175866,0.19874128463009813,0.12238417067014085,0.0801700395162256
0.07228294493710044,0.6771826153259626,0.8406656336320151,0.6127326798105517,0.11054421768707481,0.7969286359530262,0.684528097982709,0.41487027851964897,0.2832715349492845,0.19664342568026166,0.12051135900985259,0.07855346665070051
0.0813569808207878,0.6867136866183757,0.8414740955332479,0.6023791166428021,0.11377551020408164,0.8020776874435411,0.6880403458213257,0.41658718046547116,0.28391505531210737,0.19793916209045478,0.12364628287598728,0.08334331217818225
0.08610022685089709,0.6920510865421272,0.8421478137842755,0.5967617579028527,0.11539115646258503,0.8049683830171634,0.6933537463976945,0.418733307897749,0.28422149358011833,0.19901894243228238,0.12608908069375457,0.08669620404741947
0.0756857083934832,0.6829965688143346,0.842484672909789,0.6075558982266769,0.11079931972789117,0.8009033423667569,0.6899315561959655,0.4132010682945441,0.2812490423804125,0.19568704880607152,0.1222213174822897,0.08262483534906
0.0586718911115694,0.6701296225695768,0.844573199487974,0.624077541579469,0.10246598639455784,0.7962059620596205,0.6789445244956772,0.4036627241510874,0.2748444825789845,0.18899241068674036,0.11493363732595063,0.07310501736319004
0.05722829449371004,0.6685093404498665,0.8443710840126658,0.6258398502037669,0.10204081632653061,0.7953026196928635,0.6738112391930836,0.4015165967188097,0.2727300585297092,0.18766582340963783,0.11330510544743913,0.06987187163213986
0.0691895236131161,0.6758482653450247,0.8417435828336589,0.6151558541689612,0.1086734693877551,0.797018970189702,0.6826368876080692,0.40633346051125524,0.2757637973830172,0.19109026963657683,0.11729500854979236,0.07538019398874386
0.07537636626108475,0.6758482653450247,0.8377686451525972,0.6118515254984029,0.11369047619047619,0.7943992773261066,0.6881304034582133,0.41186570011446016,0.27790886525909364,0.19346578638859754,0.12022636593111309,0.08011016644713209
0.07063312023097547,0.6579298513152878,0.8281344741629051,0.6247384073135808,0.11785714285714285,0.7794037940379404,0.6766030259365995,0.40652422739412436,0.27487512640578554,0.18997963842783985,0.11652145590749936,0.07609867081786612
0.05825943493503815,0.6362943194815096,0.8209256888769116,0.643793369313801,0.11726190476190475,0.7644083107497742,0.6620136887608069,0.3996089278901183,0.2697882511568045,0.18516690318997966,0.11000732839345329,0.06633936055562208
0.05733140853784286,0.6363896301944337,0.8216667789530417,0.6442339464698755,0.11641156462585033,0.7649503161698283,0.659942363112392,0.4003243037008775,0.2697269635032023,0.1856913679274388,0.11045517466004395,0.06580050293378038
0.07259228706949887,0.6537361799466259,0.8238226773563295,0.6261702830708228,0.121343537414966,0.7745257452574525,0.6709293948126802,0.40809805417779477,0.27527349615419977,0.19059665576602708,0.11680644898623889,0.07454197102143455
0.08125386677665498,0.6672703011818528,0.8277976150373914,0.6137239784117193,0.1223639455782313,0.7836495031616981,0.6829070605187321,0.4155856543304083,0.28057487819078847,0.195903004874437,0.12266916374888037,0.08316369297090169
0.0701175500103114,0.6594548227220739,0.8294819106649599,0.6241876858684877,0.1167517006802721,0.7811201445347787,0.6853386167146975,0.41439336131247617,0.2801458646155732,0.1952859875362498,0.12042993241592703,0.08046940486169321
0.05578469787585069,0.643823865802516,0.8278649868624941,0.6408194735102984,0.11181972789115646,0.7725383920505873,0.6811959654178674,0.40876573826783674,0.2764686053994423,0.1907817609674832,0.11509649051380179,0.07214704825769369
0.05485667147865538,0.6418223408311093,0.8270565249612611,0.6424716378455777,0.11198979591836733,0.771093044263776,0.6877701729106629,0.41115032430370085,0.2776024269910827,0.1909668661689394,0.11501506391987622,0.0705304753921686
0.06764281295112393,0.6535455585207777,0.8269891531361584,0.6288137460072695,0.11726190476190475,0.7766034327009937,0.7066822766570605,0.4228824876001526,0.2844360003677259,0.19747639908681436,0.12311701001547104,0.08028978565441265
0.0758919364817488,0.6651734654975219,0.8298187697904736,0.617799317105408,0.1189625850340136,0.784010840108401,0.72289265129683,0.43137161388782913,0.28918579352189505,0.20247423952613072,0.12893901148114972,0.08615734642557778
0.0635182511858115,0.6584064048799084,0.8331873610456106,0.6282630245621764,0.11164965986394557,0.783107497741644,0.7219020172910664,0.4286054940862266,0.2876536021818405,0.20049978404393168,0.12535624134842438,0.08148724703628307
0.050628995669210135,0.6507815478459777,0.8361517213501313,0.6394977420420751,0.10450680272108843,0.7813911472448057,0.7081231988472623,0.4200686760778329,0.2824747954524562,0.19577960140679956,0.11831284097386205,0.07256615974134835
0.05083522375747576,0.6575486084635912,0.8408003772822206,0.635532547637405,0.10170068027210884,0.7878048780487804,0.7042507204610952,0.41715948111407863,0.2817393436092299,0.194360461528969,0.11664359579838775,0.06933301401029818
0.062383996700350594,0.671082729698818,0.8428215320353029,0.6215442229320409,0.10518707482993198,0.7954832881662149,0.7146974063400577,0.42188096146508963,0.2852020960377532,0.19793916209045478,0.12112205846429443,0.07561968626511795
0.06619921633326459,0.6722264582539077,0.8411372364077342,0.6187906157065756,0.10782312925170066,0.7949412827461607,0.7225324207492796,0.42512399847386495,0.28691815033861434,0.20071574011229718,0.12417555573650353,0.08142737396718956
0.057434522581975664,0.6575486084635912,0.8364212086505423,0.6320079303888093,0.10714285714285715,0.7848238482384824,0.7145172910662825,0.41901945822205267,0.2815248368216223,0.19624236441043996,0.11896425372526666,0.0760387977487726
0.04609197772736647,0.6402973694243232,0.8317051808933504,0.6480889965855271,0.1054421768707483,0.77353206865402,0.6973162824207493,0.4083842045020985,0.27435418135016704,0.1897019806256556,0.11074016773878348,0.06562088372649982
0.046710661992163324,0.645158215783454,0.8347369130229738,0.6448948122039873,0.10374149659863946,0.7778681120144535,0.6909221902017292,0.4053796260969096,0.2737719486409463,0.18957857715801818,0.11069945444182068,0.06598012214106096
0.06537430398020211,0.6597407548608463,0.832850501920097,0.6265007159378786,0.11267006802721088,0.7834688346883469,0.6991174351585014,0.4132487600152614,0.27873624858272306,0.1946072684642439,0.11749857503460628,0.07532032091965034
0.07620127861414726,0.6635531833778117,0.828403961463316,0.6185703271285383,0.11989795918367348,0.7822944896115629,0.7051512968299712,0.41878099961846627,0.2819232065700365,0.1977540568889986,0.1225877371549548,0.08406178900730452
0.07341719942256135,0.6531643156690811,0.8229468436299939,0.6259499944927855,0.12227891156462584,0.7737127371273712,0.6948847262247839,0.41520412056467,0.2802684399227776,0.1955327944715247,0.11969709307059685,0.08130762782900251
0.06424004949474119,0.6437285550895919,0.8222731253789666,0.6364137019495539,0.11887755102040815,0.7688346883468836,0.676693083573487,0.40633346051125524,0.2754267152882052,0.19084346270130192,0.11391580490188094,0.07322476350137708
0.06289956692101466,0.6474456728936331,0.8257764602843091,0.6348716819032934,0.11615646258503401,0.7728997289972901,0.6730007204610952,0.4036627241510874,0.2737719486409463,0.18960942802492753,0.11354938522921586,0.0724464136031613
0.0710455764075067,0.6623141441097978,0.8309640908172202,0.6219848000881154,0.11624149659863946,0.7834688346883469,0.6837175792507205,0.4095764975200305,0.2771427695890663,0.19386684765841924,0.11904568031919224,0.08005029337803855
0.07785110332027223,0.6754670224933281,0.8357474903995149,0.6107500826082167,0.11598639455782313,0.7928635953026197,0.687950288184438,0.4121995421594812,0.2792265498115405,0.1961498118097119,0.12344271639117334,0.08603760028739073
0.06908640956898329,0.6686999618757147,0.8367580677760561,0.6193413371516686,0.11173469387755101,0.7903342366757001,0.677863832853026,0.4071442197634491,0.2764379615726412,0.19349663725550692,0.12091849197948047,0.08124775475990899
0.05825943493503815,0.6589782691574532,0.8369601832513642,0.630686198920586,0.10714285714285715,0.7859078590785907,0.6663364553314122,0.39965661961083554,0.2717494560720743,0.18905411242055906,0.11420079798062045,0.07160819063585198
0.05764075067024129,0.6585970263057567,0.8370949269015696,0.6313470646546977,0.10680272108843537,0.7858175248419151,0.6648054755043228,0.4002766119801603,0.2721478258204885,0.18902326155364968,0.11281654588388566,0.06981199856304635
0.06743658486285833,0.6613610369805565,0.8326483864447887,0.6244079744465248,0.11360544217687073,0.7841011743450768,0.678314121037464,0.40919496375429226,0.27698955045506085,0.1932806811871414,0.11733572184675513,0.07693689378517543
0.07310785729016292,0.6672703011818528,0.8331199892205079,0.6180196056834453,0.11573129251700681,0.7871725383920506,0.6880403458213257,0.4153948874475391,0.28131033003401473,0.19726044301844883,0.12238417067014085,0.08334331217818225
0.06743658486285833,0.6620282119710255,0.8331199892205079,0.624077541579469,0.11335034013605441,0.7847335140018067,0.6832672910662825,0.4130579931323922,0.279716851040358,0.1959955574751651,0.1208777786825177,0.08112800862172195
0.05805320684677252,0.6541174227983224,0.8337263356464327,0.6336600947240885,0.10909863945578233,0.7813911472448057,0.6721902017291067,0.4065719191148417,0.2755799344222107,0.192046646510767,0.11558505007735526,0.07274577894862891
0.06094040008249123,0.6598360655737704,0.8358148622246176,0.6288137460072695,0.10892857142857142,0.7855465221318879,0.6767831412103746,0.4076211369706219,0.2761928109582325,0.19263281298204485,0.11692858887712725,0.07364387498503173
0.07609816457001443,0.6730842546702248,0.8352085157986929,0.6130631126776076,0.1155612244897959,0.7914182475158085,0.6914625360230547,0.41668256390690583,0.2814635491680201,0.19735299561917694,0.12299487012458268,0.08214585079631183
0.08022272633532687,0.678993518871521,0.8366906959509532,0.6074457539376583,0.1163265306122449,0.7952122854561879,0.7053314121037465,0.42455169782525753,0.2872552324334263,0.2025667921268588,0.12824688543278231,0.08933061908753442
0.07042689214270983,0.6698436904308043,0.8366906959509532,0.6179094613944266,0.11232993197278911,0.7907859078590785,0.7043407780979828,0.42211942006867614,0.28636656145619466,0.2011785031159376,0.12600765409982898,0.0856783618728296
0.05949680346463189,0.6583110941669843,0.835680118574412,0.6304659103425487,0.10841836734693877,0.7846431797651309,0.6949747838616716,0.41587180465471196,0.2822296448380474,0.1964583204788055,0.12063349890074097,0.07711651299245599
0.06228088265621777,0.6610751048417841,0.8357474903995149,0.6273818702500275,0.10952380952380952,0.7860885275519421,0.6945244956772335,0.4164441053033193,0.28238286397205287,0.19673597828098974,0.11981923296148521,0.07723625913064304
0.07558259434935037,0.6769919939001143,0.8383749915785219,0.6110805154752725,0.11335034013605441,0.7953929539295393,0.705421469740634,0.42388401373521556,0.28746973922103397,0.20157956438575927,0.12543766794234995,0.08478026583642678
0.07651062074654569,0.6826153259626381,0.8417435828336589,0.6073356096486396,0.11164965986394557,0.800271002710027,0.7168587896253603,0.4295593285005723,0.29126957374436924,0.20503486147960762,0.13016041039003337,0.08951023829481498
0.06465250567127243,0.670320243995425,0.8408003772822206,0.6207732129089106,0.10731292517006802,0.7937669376693767,0.7154178674351586,0.42550553223960325,0.28887935525388414,0.2017955204541248,0.12612979399071736,0.08448090049095917
0.053825531037327276,0.6518299656881432,0.8347369130229738,0.6372948562617028,0.10671768707482993,0.7809394760614273,0.7069524495677233,0.4191148416634872,0.28452793184812925,0.19735299561917694,0.11912710691311781,0.07549994012693091
0.05547535574345226,0.6467784979031642,0.8301556289159873,0.6392774534640379,0.11028911564625848,0.7755194218608852,0.7051512968299712,0.4181610072491416,0.28302638433487576,0.19655087307953356,0.11806856119208532,0.07472159022871513
0.06692101464219427,0.6576439191765153,0.8302903725661928,0.6269412930939531,0.11488095238095239,0.7807588075880758,0.7105547550432276,0.4199732926363984,0.28434406888732267,0.1983710742271858,0.12169204462177347,0.0810082624835349
0.07187048876056919,0.6700343118566526,0.8358822340497204,0.6170283070822777,0.11343537414965986,0.7903342366757001,0.7088436599423631,0.4160625715375811,0.28250543927925725,0.198216819892639,0.12262845045191759,0.08448090049095917
0.05516601361105381,0.6661265726267631,0.8439668530620494,0.6282630245621764,0.10144557823129251,0.7939476061427281,0.6893011527377523,0.40165967188096147,0.2742928936965649,0.19167643610785465,0.11591075645305755,0.07448209795234104
0.027943905959991747,0.6771826153259626,0.8695681466010914,0.6364137019495539,0.07406462585034015,0.8163504968383017,0.6692182997118156,0.38062762304463943,0.2646400882542212,0.18513605232307032,0.10715739760605812,0.05867560771165129
0.007527325221695199,0.7103507434235606,0.9064205349322914,0.6281528802731577,0.04234693877551021,0.8568202348690154,0.659942363112392,0.3603109500190767,0.25566144700150156,0.18232862343431852,0.10178324240697009,0.046162136271105256
0.012167457207671678,0.7211208539839877,0.9110018190392777,0.6194514814406873,0.041411564625850335,0.8649503161698284,0.6893912103746398,0.37314002289202597,0.26929794992798706,0.19911149503301048,0.11582932985913198,0.05580170039516226
0.058775005155702206,0.7319862752573388,0.8882975139796536,0.5882806476484194,0.07499999999999998,0.8548328816621499,0.7521613832853027,0.4391453643647463,0.3296662887261362,0.2639600172764855,0.17832424069701164,0.11459705424500059
0.1486904516395133,0.7324628288219595,0.8298861416155763,0.5400374490582662,0.14889455782312924,0.8159891598915988,0.797370317002882,0.5312380770698207,0.42895228756167075,0.3760412167581909,0.2844638058790001,0.21356723745659204
0.28366673540936277,0.7246473503621805,0.7361045610725594,0.472408855600837,0.26369047619047614,0.7494128274616079,0.7760266570605188,0.6238553987027852,0.5523549780896639,0.520978589498365,0.41967266509241913,0.3449287510477787
0.4615384615384615,0.7465688143347312,0.6353836825439602,0.36468774094063217,0.4006802721088435,0.6922312556458897,0.7129863112391932,0.7296833269744373,0.7006098121533418,0.6869562534707226,0.5754010259750835,0.5050892108729492
0.645597030315529,0.793842927945101,0.5485413999865256,0.23912325145941185,0.5313775510204081,0.6563685636856369,0.644542507204611,0.8204406714994277,0.816933778690283,0.8162213858209416,0.70780066769807,0.6584241408214584
0.810888843060425,0.8298703774304231,0.4660109142356666,0.13008040533098356,0.6516156462585033,0.6181571815718158,0.5277377521613834,0.8604540251812286,0.865841326264824,0.8690072191028568,0.7868251771028417,0.7809244401868038
0.9103938956485873,0.8075676706061762,0.3852320959374789,0.08976759555017069,0.7436224489795917,0.5533875338753388,0.3838256484149856,0.8389927508584509,0.8599883553458156,0.848892453877954,0.794845696604511,0.8354089330619087
0.8453289338007837,0.6971978650400303,0.34965977228323114,0.18823658993281203,0.7392006802721087,0.4772357723577235,0.2859329971181556,0.7052651659671881,0.737045322219839,0.7147528845560561,0.6788128002605651,0.7444018680397556
0.6597236543617241,0.593499809378574,0.39769588358148616,0.3473950875647097,0.632312925170068,0.46034327009936765,0.15552953890489918,0.42040251812285384,0.4533141298685381,0.46338002097858955,0.45908313655239796,0.5416117830199976
0.4156527118993607,0.6083682805947388,0.5676749983157043,0.4691045269302786,0.4244897959183673,0.5813008130081301,0.07141570605187324,0.14092903471957272,0.14905157356050625,0.17643610785463076,0.19501669245175474,0.28236139384504844
0.2637657248917303,0.644491040792985,0.6924476184059826,0.5293534530234607,0.283078231292517,0.6821138211382114,0.0708753602305476,0.04087180465471195,0.009928599883553449,0.026655149009687205,0.04291181499877857,0.12142258412166208
0.23015054650443387,0.6460160121997712,0.7154887825911204,0.5464258178213459,0.2546768707482993,0.6982836495031617,0.18254682997118157,0.13592140404425793,0.07250329421138113,0.06164003208490161,0.052560866378959355,0.10591545922643995
0.18818313054237987,0.6524971406786122,0.7474903995149229,0.5651503469545104,0.21717687074829928,0.722854561878952,0.35392651296829974,0.26497520030522703,0.17062482762847428,0.1294810884185846,0.09453627554759382,0.11525565800502934
0.136316766343576,0.6659359512009149,0.7908778548810886,0.5850864632668796,0.16845238095238094,0.7582655826558264,0.5019812680115274,0.35706791301030144,0.23850090399289067,0.17313506509532922,0.11562576337431804,0.10370015566997963
0.11734378222313878,0.6626953869614944,0.8009836286465001,0.5970921907699085,0.15416666666666667,0.7635049683830173,0.6042867435158502,0.41262876764593664,0.27665246836024887,0.19500832973406554,0.12478625519094534,0.09855107172793677
0.11126005361930294,0.6493518871521158,0.7955265108131778,0.6079964753827514,0.15510204081632653,0.75356820234869,0.6647154178674353,0.43375619992369324,0.2909631354763583,0.2027210464614056,0.12914257796596368,0.09992815231708778
0.08836873582181892,0.6330537552420891,0.7989624738934178,0.6296949003194184,0.1435374149659864,0.7481481481481482,0.6902017291066282,0.4334700495993895,0.29016639597953,0.19858703029555133,0.122547023857992,0.08992934977846964
0.06588987420086616,0.6168509340449865,0.8021963214983494,0.6510628923890296,0.13222789115646258,0.7426377597109304,0.694164265129683,0.4260301411674933,0.28422149358011833,0.19019559449620535,0.11151372038107644,0.07274577894862891
0.060527943905959995,0.6160884483415935,0.80516068180287,0.6542570767705694,0.12814625850340136,0.7442637759710931,0.7006484149855908,0.4236932468523465,0.28164741212882666,0.18599987659653242,0.10597671199413726,0.06460304155190995
0.06743658486285833,0.6304803659931376,0.8108872869366031,0.642361493556559,0.12738095238095237,0.7548328816621499,0.7171289625360231,0.4312762304463945,0.2849263015965434,0.1873881656074536,0.10736096409087206,0.06729732966111843
0.06186842647968654,0.6250476553564619,0.8106851714612948,0.6484194294525828,0.1251700680272109,0.7522131887985547,0.7318083573487032,0.4350915681037772,0.2863359176293936,0.18704880607145064,0.10683169123035581,0.06592024907196742
