Lead I,Lead II,Lead III,aVR,aVL,aVF,V1,V2,V3,V4,V5,V6
0.0870282532480923,0.7214067861227601,0.8622919894899952,0.5793589602379117,0.1030612244897959,0.8324299909665764,0.6847982708933718,0.414536436474628,0.2879600404498514,0.2050657123465169,0.1291425779659636,0.081367500898096
0.0776448752320066,0.7109226077011055,0.8610119248130431,0.5903733891397731,0.0999999999999999,0.8265582655826559,0.6740814121037465,0.4072396032048836,0.2836392608708976,0.2007157401122971,0.1235648562820617,0.0729852712250029
0.0844504021447721,0.7176896683187189,0.8613487839385569,0.5827734331974886,0.1025510204081632,0.8299909665763324,0.6784942363112392,0.4100534147272034,0.2849875892501455,0.2025976429937681,0.1257226610210894,0.0764579092324272
0.0935244380284594,0.7229317575295462,0.8591928855352692,0.574953188677167,0.1076530612244898,0.8310749774164408,0.6959654178674352,0.4199732926363984,0.2904115465939387,0.2079656938359968,0.1324403550199495,0.0859178541492036
0.0954836048669828,0.7110179184140296,0.8493565990702688,0.5807908359951536,0.114625850340136,0.8188798554652214,0.70407060518732,0.4243132392216711,0.2923421076824074,0.2096007897821929,0.1343945932741633,0.0907675727457789
0.0819756650855846,0.6838543652306518,0.8390487098295493,0.6037008481110254,0.1156462585034013,0.7990063233965672,0.6972262247838616,0.418065623807707,0.2887261361198787,0.2049114580119701,0.1293461444507776,0.0837025505927433
0.0752732522169519,0.6657453297750666,0.8306272316917065,0.617799317105408,0.1181122448979591,0.7848238482384824,0.6893912103746398,0.412676459366654,0.2849569454233445,0.2005614857777503,0.1237684227668756,0.075859178541492
0.0847597442771705,0.6657453297750666,0.8244290237822542,0.6126225355215332,0.1260204081632653,0.7806684733514002,0.6959654178674352,0.4163964135826021,0.2860907670149848,0.2015178626519405,0.1243384089243546,0.0766974015088013
0.0903279026603423,0.6705108654212732,0.8242269083069459,0.6070051767815838,0.1284013605442177,0.7827461607949412,0.7051512968299712,0.4199732926363984,0.2874390953942328,0.2033689146665021,0.127351192899601,0.0824452161417794
0.0819756650855846,0.6659359512009149,0.8263828067102337,0.6140544112787751,0.1236394557823129,0.7820234869015357,0.7069524495677233,0.4193533002670736,0.2861214108417859,0.202844449929043,0.1266183535542708,0.0823853430726859
0.0613528562590224,0.65659550133435,0.8331873610456106,0.6304659103425487,0.1107993197278911,0.7822041553748871,0.6904719020172911,0.4079072872949256,0.278736248582723,0.1962423644104399,0.1187606872404527,0.0722667943958807
0.0434110125799133,0.6670796797560045,0.8523883311998922,0.6339905275911444,0.0913265306122449,0.8000903342366757,0.6740814121037465,0.3946966806562381,0.2723623326080961,0.19093601530203,0.1128979724778112,0.0617291342354209
0.036502371623015,0.7088257720167745,0.8864111028767768,0.6135036898336821,0.0669217687074829,0.8426377597109304,0.6730907780979827,0.3891167493323159,0.2741703183893605,0.1952859875362498,0.1156664766712808,0.0601125613698958
0.0287688183130542,0.7689668318719024,0.93390823957421,0.5828835774865073,0.033843537414966,0.902981029810298,0.6797550432276658,0.381390690576116,0.2783685226611099,0.203615721601777,0.1240127025486523,0.0636450724464136
0.0229944318416168,0.790221120853984,0.9527723506029778,0.5737416014979623,0.0194727891156462,0.9257452574525744,0.69992795389049,0.3872567722243418,0.2894003003095026,0.2180539273153575,0.1372038107645957,0.0701113639085139
0.0486698288306867,0.7868852459016393,0.9335713804486964,0.5619561625729705,0.0421768707482993,0.9112917795844624,0.7372118155619598,0.4338992750858451,0.3330064658474551,0.2666131918306905,0.1812963113752951,0.1059154592264399
0.1395133017116931,0.7865040030499427,0.8740820588829751,0.5136028196937988,0.1171768707482993,0.8711833785004517,0.7797190201729108,0.5209843571156048,0.4226090154138449,0.3674955266242982,0.2773389789105121,0.1969225242485929
0.2925345432047845,0.7877430423179566,0.7749107323317389,0.4312148915078753,0.2428571428571428,0.8052393857271906,0.7909762247838616,0.6229015642884396,0.5450923911378053,0.5098105756771766,0.4136878104388893,0.3348102023709735
0.4835017529387502,0.8054708349218451,0.6626018998854679,0.3189778609979072,0.392517006802721,0.7383920505871726,0.744956772334294,0.7339755818389928,0.6941133208715105,0.6778552477324613,0.573365361126944,0.5047299724583881
0.6731284800989895,0.8404498665650019,0.5634979451593344,0.1974887102103755,0.5332482993197278,0.6885275519421861,0.6548991354466859,0.8194391453643649,0.8155854503110349,0.8162522366878511,0.7109355915642048,0.6626751287270986
0.8274902041658074,0.8723789553945864,0.4852118843899481,0.0965965414693247,0.6462585034013606,0.6511291779584463,0.5225144092219021,0.8498664631819917,0.8590996843685841,0.8627136422533475,0.7814510219037537,0.7714644952700275
0.9456588987420088,0.8619900876858558,0.4007276157111095,0.0395417997576825,0.7483843537414965,0.5896115627822944,0.3547370317002882,0.8244467760396795,0.8502129745962677,0.8386808169309559,0.79118149987786,0.8331936295054484
0.9291606516807588,0.7825962638200534,0.3553190055918614,0.0941733671109152,0.7702380952380952,0.5214995483288166,0.265399855907781,0.719381915299504,0.7559219195293109,0.7265379157154317,0.7006351274326196,0.7760747215902287
0.7583006805526913,0.6771826153259626,0.3923735093983695,0.2462826302456217,0.6763605442176871,0.496386630532972,0.157150576368876,0.4560759252193819,0.4977170349033187,0.4988276670574444,0.5045598892598322,0.5982517063824692
0.4952567539698907,0.6525924513915363,0.5469244761840598,0.401035356316775,0.4704081632653061,0.5883468834688347,0.057907060518732,0.1589088134299885,0.188735329267919,0.2178688221139014,0.2435876557283608,0.3366063944437791
0.2828418230563002,0.6818528402592451,0.7063935862022501,0.4975217534970811,0.2821428571428571,0.7092140921409215,0.0172010086455331,0.0,0.0066803542426378,0.031868945517369,0.0506066281247455,0.1232786492635612
0.2314910290781604,0.6845215402211208,0.7417637943811897,0.5234056614164555,0.2386904761904761,0.7341463414634145,0.078800432276657,0.042064097672644,0.0227990071400116,0.0281668414882458,0.0255679504926308,0.0762184169560531
0.2352031346669416,0.696149447197865,0.7476251431651283,0.5148144068730035,0.2364795918367346,0.7435411020776873,0.1511167146974063,0.1034910339565051,0.0675696380964055,0.0598198309372493,0.0457617457861737,0.085618488803736
0.2212827387090122,0.7260770110560426,0.7778750926362595,0.5049014208613283,0.2116496598639455,0.7780487804878048,0.3001621037463977,0.2169496375429226,0.1489289982533019,0.1178194607268464,0.0885107075971012,0.1091486049574901
0.1697257166426067,0.7369424323293937,0.8193087650744458,0.5261592686419209,0.1642857142857142,0.8109304426377596,0.4718119596541787,0.3326497520030523,0.2279287837465142,0.1713148639476769,0.1202670792280758,0.1119626392048856
0.1216745720767168,0.7154975219214639,0.8354780030991038,0.5642691926423614,0.1341836734693877,0.8116531165311653,0.5788904899135446,0.394172071728348,0.2688382925259707,0.1926945147158635,0.1242162690334663,0.0928631301640522
0.1006393070736234,0.6869043080442241,0.8290776797143434,0.5919154091860336,0.1295918367346938,0.7937669376693767,0.6267110951008645,0.4142025944296071,0.2826893022400638,0.1969210834824458,0.1218548978096246,0.082864327625434
0.0959991750876469,0.680423179565383,0.8274607559118776,0.5981936336600947,0.1287414965986394,0.7896115627822944,0.6602125360230547,0.4196871423120946,0.2867649312046089,0.1983093724933671,0.121773471215699,0.0808286432762543
0.0967209733965766,0.6837590545177277,0.8292797951896517,0.5958806035907038,0.1278061224489795,0.7924119241192412,0.6992975504322767,0.4298931705455933,0.291514724358778,0.200962547047572,0.1240127025486523,0.0845407735600526
0.0874407094246236,0.6708921082729699,0.826315434885131,0.6082167639607886,0.1259353741496598,0.7843721770551039,0.7187500000000001,0.4333269744372377,0.2920356694143965,0.1996359597704696,0.1213663382460711,0.0812477547599089
0.0583625489791709,0.6452535264963781,0.8271912686114667,0.6386165877299261,0.1133503401360544,0.7728093947606143,0.7139769452449568,0.426983975581839,0.286489136763399,0.1921083482445857,0.1109437342235974,0.0661597413483415
0.041967415962054,0.6289553945863514,0.8263828067102337,0.6567903954179976,0.1071428571428571,0.7644986449864498,0.7125360230547552,0.4216425028615033,0.2812183985536114,0.1852903066576171,0.1019053822978584,0.0535265237696084
0.042482986182718,0.6260960731986275,0.8240247928316378,0.6581121268862209,0.1087585034013605,0.7616079494128275,0.7171289625360231,0.420927127050744,0.2799620016547667,0.1833467020423274,0.100643270092012,0.0501736319003712
0.0485667147865539,0.6300038124285169,0.8228120999797884,0.6527150567243089,0.1120748299319727,0.7626016260162601,0.7262247838616716,0.4276993513925982,0.2840989182729139,0.1860615783303511,0.1034117742854816,0.0548437312896659
0.047432460301093,0.635817765916889,0.8275954995620831,0.6499614494988435,0.1085884353741496,0.768654019873532,0.7221721902017292,0.4303700877527661,0.2854166028253608,0.1867711482692663,0.1030046413158537,0.0558017003951622
0.0337182924314291,0.6331490659550132,0.8348042848480764,0.6587729926203326,0.0983843537414966,0.7721770551038843,0.7016390489913545,0.4228347958794353,0.2825360831060583,0.183315851175418,0.097956192492468,0.0484971859657526
0.0320684677253041,0.6381052230270681,0.8393181971299603,0.6567903954179976,0.0948979591836734,0.7775067750677507,0.6873198847262249,0.4169210225104922,0.2798087825207612,0.1805084222866662,0.0942105691718915,0.0419111483654652
0.0418643019179212,0.6585017155928325,0.8473354443171865,0.6398281749091309,0.0937925170068027,0.7925925925925926,0.694164265129683,0.4223101869515452,0.2830570281616768,0.1836243598445116,0.0983633254620959,0.0459226439947311
0.0522788203753351,0.6820434616850933,0.8571717307821869,0.6205529243308734,0.0919217687074829,0.8103884372177055,0.713706772334294,0.4328500572300648,0.2906873410351485,0.1899487875609305,0.1057324322123605,0.0546042390132918
0.0521757063312023,0.685474647350362,0.8596644883109884,0.6186804714175569,0.0903061224489795,0.8136404697380308,0.7195605187319886,0.4363315528424266,0.293230778659639,0.1915838835071265,0.1083380832179789,0.058076877020716
0.0432047844916477,0.6791841402973693,0.861079296638146,0.6270514373829716,0.0857142857142857,0.8115627822944895,0.7123559077809799,0.4318008393742846,0.2902276836331321,0.1884370950823718,0.104103900333849,0.0532271584241408
0.0406269333883274,0.6794700724361418,0.8629657077410228,0.6283731688511951,0.0835034013605442,0.8130081300813009,0.7094740634005764,0.4309423884013735,0.2891245058682928,0.186308385265626,0.1008875498737887,0.0485570590348461
0.0522788203753351,0.6930995043842927,0.864986862494105,0.6141645555677937,0.0869897959183673,0.820776874435411,0.7218119596541787,0.4376669210225105,0.2929243403916281,0.1889307089529216,0.1038596205520722,0.0526284277332056
0.0668179005980614,0.7076820434616851,0.8657279525702352,0.5980834893710761,0.092517006802721,0.8281842818428183,0.7344200288184439,0.4467760396795117,0.2988692427910397,0.194021101992966,0.1098851885025649,0.0602323075080828
0.0661992163332645,0.7079679756004573,0.8664016708212625,0.5981936336600947,0.0918367346938775,0.8288166214995483,0.7355007204610952,0.4474437237695536,0.2995127631538627,0.1946998210649719,0.1104144613630811,0.0611304035444857
0.0542379872138585,0.6956728936332442,0.8655258370949269,0.6117413812093843,0.0874999999999999,0.8224028906955737,0.725414265129683,0.4396699732926364,0.2946097508656881,0.1893317702227433,0.1043481801156257,0.0523889354568315
0.0440296968447102,0.6852840259245139,0.8648521188438995,0.6230862429783015,0.083673469387755,0.8170731707317074,0.7198306916426513,0.4322777565814575,0.2894922317899059,0.1832850003085087,0.0975083462258773,0.0423901329182133
0.0447514951536399,0.6882386580251619,0.8664690426463654,0.6211036457759664,0.0829081632653061,0.8195121951219513,0.7246037463976945,0.4342808088515834,0.2897986700579169,0.182883939038687,0.0968569334744727,0.0411926715363429
0.055578469787585,0.6980556614563476,0.8664016708212625,0.609538495429012,0.0874999999999999,0.8241192411924119,0.7385626801152738,0.4422453262113697,0.2944871755584838,0.1867711482692663,0.1019053822978584,0.0492755358639683
0.0525881625077335,0.6894776972931757,0.8622246176648926,0.6161471527701289,0.088860544217687,0.8172538392050587,0.7486491354466859,0.4469191148416635,0.2956822848037263,0.1870179552045413,0.1021089487826724,0.0504729972458388
0.0408331614765931,0.6701296225695768,0.8562285252307484,0.6336600947240885,0.0877551020408163,0.8040650406504064,0.7478386167146975,0.4457745135444487,0.2937210798884565,0.1841796754488801,0.0966533669896587,0.0430487366782421
0.0334089502990307,0.6644109797941288,0.8570369871319814,0.6408194735102984,0.0842687074829932,0.8018970189701896,0.747478386167147,0.4456314383822969,0.2933533539668434,0.1827605355710495,0.0940477159840403,0.0388576218416956
0.0392864508146009,0.6689858940144872,0.8564306407060567,0.6350919704813305,0.0869897959183673,0.8037037037037036,0.7594560518731989,0.4524990461655856,0.2979805718138081,0.1850434997223422,0.096042667535217,0.0411926715363429
0.0505258816250773,0.6732748760960731,0.8521188438994812,0.6266108602268972,0.0943877551020408,0.8028003613369467,0.7792687319884726,0.464326592903472,0.3042012686544296,0.1892700684889245,0.1015796759221561,0.0499940126930906
0.0492885130954835,0.6610751048417841,0.8442363403624604,0.6343209604582002,0.0988945578231292,0.7917795844625113,0.7893551873198847,0.466520412056467,0.3045077069224405,0.1881902881470969,0.1009282631707515,0.0513112202131481
0.0369148277995463,0.6397255051467784,0.837297042376878,0.6532657781694019,0.0981292517006802,0.7769647696476966,0.7831412103746399,0.4621327737504769,0.2998498452486747,0.1824828777688653,0.093152023450859,0.0417914022272781
0.0266034233862652,0.6269538696149446,0.8349390284982819,0.6661526599845797,0.0954081632653061,0.7692863595302619,0.7758465417867435,0.4592235787867226,0.2971531884901787,0.1778860985993706,0.087574301766957,0.0341875224524009
0.0337182924314291,0.6303850552802134,0.8327831300949943,0.6604251569556118,0.0996598639455782,0.7694670280036133,0.7835014409221902,0.4649465852727966,0.2995127631538627,0.1785339668044672,0.0877371549548082,0.0366423182852353
0.0471231181686945,0.6331490659550132,0.8259112039345146,0.6516136138341226,0.1095238095238095,0.7662149954832882,0.7952989913544669,0.4739603204883632,0.3027303649679772,0.181341395693219,0.0911570718996824,0.0439468327146449
0.049597855227882,0.6186618375905452,0.8140537627164319,0.6586628483313139,0.1180272108843537,0.7514001806684732,0.7985410662824208,0.4770602823349867,0.3034045291576012,0.1799839575492071,0.0908720788209429,0.0451442940965153
0.0362961435347494,0.5936904308044224,0.80516068180287,0.6801409846899438,0.1181972789115646,0.7336043360433604,0.7918768011527378,0.4732926363983212,0.2994514755002605,0.1734127228975134,0.083543685367641,0.0354448569033648
0.0325840379459682,0.582634388105223,0.7997709357946506,0.6886220949443771,0.1199829931972789,0.7247515808491417,0.7871037463976945,0.4739603204883632,0.2971225446633776,0.1700191275374838,0.0790652227017344,0.0278409771284876
0.0439265828005774,0.5912123522683949,0.7983561274674931,0.6776076660425157,0.1255952380952381,0.7278229448961157,0.7960194524495677,0.4834986646318199,0.301994913124751,0.1730733633615104,0.0817523003012783,0.031672853550473
0.0581563208909053,0.6070339306138008,0.8003099103954726,0.6607555898226676,0.1302721088435374,0.7366757000903341,0.810428674351585,0.4985692483784815,0.310728403763062,0.1795828962793854,0.0891621203485058,0.042809244401868
0.0664054444215302,0.614277544796035,0.8000404230950616,0.6521643352792157,0.133843537414966,0.7399277326106595,0.8146613832853027,0.5064860740175506,0.3157539913584408,0.1819892638983155,0.0928263170751567,0.0476589629984433
0.0622808826562177,0.6127525733892488,0.8017247187226303,0.6552483753717369,0.1310374149659864,0.740379403794038,0.8051152737752162,0.5055322396032049,0.3150491833420158,0.1790584315419263,0.0881442879244361,0.0425098790564004
0.0615590843472881,0.6154212733511246,0.8040153607761235,0.6541469324815508,0.1293367346938775,0.743089430894309,0.8050252161383287,0.5105875619992369,0.317163607391291,0.1788733263404702,0.0874928751730315,0.0412525446054364
0.0750670241286863,0.6278116660312618,0.8039479889510206,0.6398281749091309,0.1348639455782312,0.7489611562782295,0.8143011527377522,0.5213181991606258,0.3232923727515092,0.1834084037761461,0.092948456966045,0.0493952820021554
0.0959991750876469,0.6457300800609987,0.8029374115744795,0.6182398942614825,0.1442176870748299,0.7568202348690154,0.8296109510086456,0.5375810759252194,0.3340789997854932,0.1916764361078546,0.1030860679097793,0.0629265956172913
0.1060012373685296,0.6553564620663362,0.8032742706999932,0.6073356096486396,0.1480442176870748,0.7616079494128275,0.82907060518732,0.5449256009156811,0.3405142034137223,0.1972604430184488,0.1088673560784952,0.0711292060831038
0.1043514126624046,0.6582157834540602,0.8063060028296166,0.6065645996255093,0.1454931972789115,0.7649503161698283,0.8111491354466859,0.540537962609691,0.3415254496981583,0.19864873202937,0.1099259017995277,0.0719075559813195
0.106826149721592,0.6645062905070529,0.8091356194839318,0.6016081066196718,0.1447278911564625,0.7698283649503161,0.7946685878962537,0.53634109118657,0.3425979836361965,0.2006540383784784,0.1121244198355182,0.0734043827086576
0.1230150546504433,0.6824247045367898,0.8112915178872195,0.5825531446194514,0.15,0.7797651309846433,0.7908861671469741,0.5369133918351774,0.346796187907946,0.2085518603072746,0.1218548978096246,0.0846605196982397
0.13683233656424,0.7037743042317955,0.8172876103213635,0.5628373168851195,0.1519557823129251,0.7938572719060525,0.7861131123919309,0.5368180083937428,0.351178255140502,0.2174986117109891,0.1336210406318703,0.0986708178661238
0.1403382140647556,0.7180709111704154,0.8251027420332817,0.5528141865844256,0.148469387755102,0.8058717253839205,0.7752161383285302,0.528758107592522,0.3518830631569271,0.2233294255568581,0.1408680074912466,0.1056759669500658
0.1311610641369354,0.719881814715974,0.8323788991443778,0.5566692367000771,0.1400510204081632,0.8116531165311653,0.7534221902017292,0.5130198397558184,0.3459381607575154,0.224347504164867,0.1414787069456884,0.1041192671536342
0.1264178181068261,0.7214067861227601,0.8364885804756451,0.5582112567463376,0.1355442176870748,0.8151761517615177,0.7357708933717579,0.4987123235406334,0.3393497379952809,0.224347504164867,0.1418858399153163,0.1010058675607711
0.1301299236956073,0.7324628288219595,0.8420130701340698,0.549840290780923,0.1335884353741496,0.8241192411924119,0.7355907780979828,0.492417016405952,0.3381546287500383,0.2282347133954464,0.147707841380995,0.1080708897138067
0.1336358011961229,0.7440907357987038,0.8478744189180084,0.5413591805264897,0.1312925170068027,0.8335140018066847,0.7417146974063401,0.4898893552079358,0.3395336009560874,0.2333251064354909,0.154995521537334,0.1174709615614896
0.1309548360486698,0.7422798322531452,0.8483460216937276,0.5437823548848991,0.1299319727891156,0.8329719963866306,0.7399135446685878,0.4838325066768409,0.3368369441975914,0.2341272289751342,0.1573568927611758,0.1181295653215183
0.1102289131779748,0.7250285932138771,0.8496260863706798,0.5648199140874545,0.1205782312925169,0.8256549232158987,0.7308177233429396,0.4696203739030904,0.3286856862685012,0.2291602394027272,0.1508427652471297,0.1080708897138067
0.1044545267065374,0.7145444147922225,0.8461227514653372,0.5739618900759995,0.1204081632653061,0.8183378500451672,0.7209113832853027,0.458460511255246,0.3210247295682285,0.2247177145677794,0.1448986238905626,0.1003472638007424
0.1072386058981233,0.7140678612276018,0.8438994812369466,0.5727503028967947,0.1229591836734693,0.8166214995483287,0.7276657060518733,0.457268218237314,0.3192167437869641,0.2247485654346887,0.1463235892842602,0.102143455873548
0.1117756238399669,0.7111132291269537,0.838846594354241,0.5719792928736644,0.1280612244897959,0.8118337850045168,0.7391930835734871,0.4596528042731782,0.3194006067477707,0.2260443018448819,0.1489699535868414,0.1056160938809723
0.1071354918539905,0.6981509721692717,0.8327157582698915,0.5820024231743584,0.1299319727891156,0.8015356820234868,0.7415345821325648,0.4577928271652041,0.3158459228388441,0.2240389954957734,0.1467307222538881,0.1039396479463537
0.0952773767787172,0.6845215402211208,0.8308967189921175,0.5962110364577596,0.1262755102040816,0.7938572719060525,0.722442363112392,0.4466329645173598,0.3085220482333835,0.2176220151786265,0.1395651819884374,0.0944198299604837
0.0885749639100845,0.6808997331300037,0.8326483864447887,0.6019385394867275,0.1223639455782313,0.7933152664859981,0.7069524495677233,0.4385730637161389,0.3026077896607729,0.2126241747393102,0.133865320413647,0.0869356963237935
0.0907403588368735,0.6903354937094929,0.8378360169776998,0.5952197378565921,0.1199829931972789,0.8012646793134598,0.7019092219020173,0.4366653948874476,0.301290105108326,0.2125007712716727,0.1345167331650517,0.0895102382948149
0.0962054031759125,0.6982462828821959,0.8399245435558849,0.5878400704923449,0.1209183673469387,0.8064137308039748,0.7016390489913545,0.4371423120946204,0.302331995219563,0.2146294810884186,0.1381402165947398,0.0947191953059513
0.0938337801608579,0.6966260007624856,0.8403287745065013,0.5900429562727172,0.1197278911564625,0.8059620596205962,0.6878602305475504,0.4338515833651278,0.3001562835166856,0.2138273585487752,0.1374073772494096,0.0944797030295772
0.0867189111156939,0.6868089973313,0.8380381324530081,0.599515365128318,0.1181972789115646,0.7998193315266486,0.675342219020173,0.4284147272033575,0.2969080378757699,0.2095082371814648,0.1322367885351355,0.0883127769129445
0.0884718498659517,0.689096454441479,0.8385097352287273,0.5972023350589272,0.1186224489795918,0.8011743450767841,0.6724603746397695,0.426650133536818,0.2964483804737536,0.2077805886345406,0.1291832912629264,0.084241408214585
0.1014642194266859,0.7095882577201676,0.8445058276628713,0.5784778059257627,0.1202380952380952,0.8149051490514906,0.682006484149856,0.4346146508966044,0.3014433242423314,0.2127475782069476,0.1340281736014982,0.0890312537420668
0.1126005361930295,0.7266488753335874,0.849289227245166,0.5626170283070823,0.1217687074829931,0.826196928635953,0.6991174351585014,0.4428176268599771,0.3073269389881409,0.2183007342506324,0.1411122872730233,0.0974134834151598
0.1112600536193029,0.7233130003812428,0.8478070470929057,0.565260491243529,0.1221938775510204,0.8236675700090336,0.7001981268011528,0.4433422357878672,0.3078172402169583,0.2189794533226384,0.1413158537578372,0.0969943719315052
0.1007424211177562,0.7132100648112847,0.847470187967392,0.5767154973014649,0.1180272108843537,0.8186088527551942,0.6908321325648416,0.437762304463945,0.3041706248276284,0.2151847966927871,0.1364709714192655,0.0901089689857502
0.0918746133223345,0.7100648112847884,0.85110826652294,0.5832140103535631,0.1120748299319727,0.819602529358627,0.6855187319884727,0.4325639069057612,0.300983666840315,0.2121305608687604,0.1329696278804657,0.0843611543527721
0.100845535161889,0.722741136103698,0.8542073704776662,0.5710981385615155,0.113860544217687,0.8276422764227642,0.6885806916426513,0.4319439145364365,0.3011981736279226,0.2132720429444067,0.1336617539288331,0.0881930307747575
0.1086822025159826,0.7358940144872282,0.8583844236340361,0.5594228439255424,0.1143707482993197,0.8366757000903342,0.6955151296829971,0.436570011446013,0.3039254742132198,0.2154624544949713,0.1379773634068886,0.0957969105496347
0.1038358424417405,0.7356080823484559,0.8613487839385569,0.5620663068619892,0.1105442176870748,0.8385727190605239,0.6977665706051873,0.4371423120946204,0.3044770630956394,0.2155858579626088,0.138099503297777,0.0964555143096635
0.0906372447927407,0.7221692718261531,0.8604055783871184,0.5769357858795021,0.1056972789115646,0.8315266485998193,0.6858789625360231,0.4287485692483785,0.2988385989642387,0.2108348244585673,0.1304454034687729,0.0855586157346425
0.0858939987626314,0.7183568433091879,0.8608771811628376,0.5816719903073025,0.1034863945578231,0.830081300813008,0.6801152737752162,0.4250286150324303,0.296601599607759,0.2087369655087308,0.1276361859783405,0.0808286432762543
0.0971334295731078,0.7295081967213114,0.8613487839385569,0.5692256856481991,0.1077380952380952,0.8356820234869015,0.6880403458213257,0.4313239221671118,0.3000337082094812,0.2124082186709446,0.1323182151290611,0.0865764579092324
0.1033202722210765,0.7380861608844833,0.8634373105167419,0.560964863971803,0.1090136054421768,0.8411020776874435,0.7018191642651297,0.4384776802747043,0.3053044464192688,0.2179922255815388,0.1393616155036234,0.0953179259968866
0.1021860177356155,0.7355127716355316,0.8623593613150979,0.5630576054631566,0.1091836734693877,0.8391147244805782,0.7088436599423631,0.4425791682563907,0.3074188704685441,0.2204602949342877,0.1424558260727953,0.0987306909352173
0.0919777273664673,0.7244567289363324,0.8612140402883514,0.574953188677167,0.10578231292517,0.833152664859982,0.7033501440922191,0.4388115223197253,0.3061318297428983,0.2189177515888196,0.1405423011155443,0.0949586875823254
0.0903279026603423,0.7239801753717117,0.8619551303644816,0.5760546315673531,0.1045918367346938,0.8334236675700091,0.7035302593659943,0.4377146127432277,0.3068059939325223,0.2195347689270068,0.1405423011155443,0.0922643994731169
0.0986801402351,0.7334159359512008,0.8631678232163309,0.5661416455556779,0.1072278911564625,0.8386630532971997,0.7174891930835735,0.4454406714994277,0.3114944994330892,0.224347504164867,0.1457128898298184,0.0974134834151598
0.1097133429573107,0.7418985894014486,0.8618877585393787,0.5553475052318537,0.1126700680272108,0.8419150858175248,0.7321685878962536,0.4530236550934758,0.3160910734532529,0.2287283272659962,0.1509241918410552,0.1062148245719075
0.1111569395751701,0.7371330537552421,0.8576433335579061,0.5573301024341887,0.1159013605442176,0.83676603432701,0.7319884726224785,0.4524513544448684,0.3156007722244354,0.2275251434565311,0.1502727790896506,0.1057957130882529
0.0986801402351,0.7208349218452154,0.854274742302769,0.5734111686309065,0.1128401360544217,0.8267389340560073,0.7176693083573488,0.4453452880579931,0.3102381025342445,0.2224656012833961,0.1439622180604185,0.0978325948988145
0.0938337801608579,0.7100648112847884,0.849828201845988,0.5822227117523956,0.1136904761904761,0.8186991869918699,0.7076729106628243,0.4365223197252957,0.3045689945760427,0.217837971246992,0.1373666639524468,0.0893306190875344
0.0966178593524438,0.7080632863133816,0.8466617260661591,0.5818922788853397,0.1168367346938775,0.815627822944896,0.7165886167146975,0.4368084700495994,0.3041093371740263,0.2172518047757142,0.1383437830795537,0.0911866842294336
0.1017735615590843,0.7097788791460159,0.8444384558377687,0.5781473730587069,0.1204081632653061,0.8149954832881661,0.7242435158501442,0.4402422739412437,0.3070817883737322,0.2198741284630098,0.1423743994788698,0.0971739911387857
0.0961022891317797,0.6986275257338924,0.8402614026813987,0.5876197819143076,0.1206632653061224,0.8068654019873531,0.7176693083573488,0.4361884776802747,0.3038948303864187,0.2177762695131733,0.1398908883641397,0.0957370374805412
0.0865126830274283,0.684712161646969,0.8366906959509532,0.6007269523075228,0.1189625850340136,0.797922312556459,0.69992795389049,0.4256009156810378,0.2956209971501241,0.210896526192386,0.1322367885351355,0.085378996527362
0.0849659723654361,0.6822340831109416,0.835949605874823,0.6030399823769137,0.1187925170068027,0.7962059620596205,0.6868695965417868,0.4194486837085082,0.2907179848619495,0.207040167828716,0.1284504519175962,0.079870674170758
0.0942462363373891,0.6926229508196721,0.8372296705517752,0.5920255534750523,0.1218537414965986,0.8019873532068654,0.6896613832853026,0.4229778710415872,0.2925566144700151,0.2095699389152835,0.1320739353472844,0.0857382349419231
0.1061043514126624,0.7074914220358367,0.8399919153809876,0.5771560744575394,0.1249999999999999,0.8109304426377596,0.6947046109510088,0.4266024418161008,0.2956822848037263,0.213549700746591,0.1370409575767445,0.0932822416477068
0.1007424211177562,0.7102554327106366,0.8454490332143098,0.578367661636744,0.1193027210884353,0.8158084914182476,0.69164265129683,0.4225009538344144,0.2945178193852849,0.2112975874622077,0.1357788453708981,0.092384145611304
0.0854815425861002,0.6980556614563476,0.8467964697163646,0.5936777178103315,0.1121598639455782,0.8110207768744354,0.677143371757925,0.4118180083937428,0.2882664787178622,0.2052199666810637,0.1281654588388567,0.0830439468327146
0.0830068055269127,0.694815097216927,0.8461227514653372,0.5968719021918713,0.1115646258503401,0.8090334236675699,0.6712896253602305,0.4089565051507058,0.2859375478809794,0.2027518973283149,0.1248269684879081,0.0781942282361393
0.0901216745720767,0.7029165078154783,0.847200700666981,0.5883907919374379,0.113860544217687,0.813550135501355,0.6821865994236311,0.4151087371232353,0.2888793552538841,0.2050040106126982,0.1273919061965638,0.0808885163453478
0.1053825531037327,0.7177849790316431,0.847739675267803,0.5716488600066086,0.119812925170068,0.8209575429087623,0.695335014409222,0.4228347958794353,0.2933227101400423,0.2096624915160116,0.133498900740982,0.089629984433002
0.1073417199422561,0.7178802897445672,0.8465269824159536,0.5704372728274039,0.121343537414966,0.8202348690153568,0.694164265129683,0.4218332697443724,0.2925872582968161,0.209353982846918,0.133295334256168,0.089629984433002
0.0945555784697875,0.7094929470072435,0.849019739944755,0.5822227117523956,0.1144557823129251,0.8178861788617886,0.6748018731988473,0.4093857306371614,0.2859681917077805,0.2034923181341396,0.1260890806937545,0.079990420308945
0.082285007217983,0.708444529165078,0.8562285252307484,0.5892719462495869,0.1049319727891156,0.8222222222222221,0.6656159942363112,0.4028042731781763,0.2815861244752244,0.1991731967668291,0.1207556387916293,0.0726260328104418
0.0941431222932563,0.721978650400305,0.8580475645085226,0.5751734772552043,0.1085884353741496,0.829810298102981,0.6729106628242075,0.4084795879435329,0.2850488769037477,0.2020423273893996,0.1250712482696848,0.0784337205125134
0.1104351412662404,0.7390392680137247,0.85946237283568,0.5566692367000771,0.1144557823129251,0.838843721770551,0.6884906340057637,0.4168256390690577,0.2905647657279441,0.2077188869007219,0.1322775018320983,0.0878936654292899
0.1055887811919983,0.7383720930232557,0.8621572458397897,0.5596431325035797,0.1107142857142857,0.8403794037940379,0.6930835734870318,0.4194009919877909,0.2927098336040205,0.2096316406491022,0.1330510544743913,0.089629984433002
0.0908434728810064,0.724266107510484,0.8618203867142761,0.5756140544112788,0.1048469387755102,0.8334236675700091,0.681286023054755,0.4129626096909576,0.2890019305610885,0.2060220892207071,0.1273104796026382,0.0810082624835349
0.0875438234687564,0.7185474647350361,0.8599339756113993,0.580680691706135,0.1047619047619047,0.8295392953929539,0.6727305475504324,0.4090518885921405,0.2866117120706034,0.2034923181341396,0.1242162690334663,0.0759190516105855
0.0983707981027015,0.7254098360655736,0.8577107053830088,0.5709879942724969,0.1105442176870748,0.8312556458897923,0.6809257925072046,0.4152995040061045,0.2900744644991266,0.2073486764978096,0.1288982981841869,0.0838821698000239
0.1060012373685296,0.7284597788791459,0.8548810887286936,0.5651503469545104,0.1154761904761904,0.8308039747064138,0.6950648414985591,0.4245516978252575,0.2945178193852849,0.2113592891960264,0.1341096001954238,0.0919650341276493
0.1031140441328108,0.7272207396111322,0.8558916661052348,0.5673532327348827,0.1136904761904761,0.8308943089430894,0.6989373198847263,0.424456314383823,0.2960500107253394,0.2120688591349417,0.1350052927286051,0.0924440186803975
0.0946586925139204,0.7196911932901257,0.856093781580543,0.5762749201453904,0.1100340136054421,0.8274616079494128,0.6861491354466859,0.4192102251049218,0.2920663132411976,0.2082742025050904,0.1299975572021822,0.0857981080110166
0.0887811919983501,0.7168318719024017,0.857912820858317,0.5810111245731909,0.1064625850340136,0.8273712737127372,0.6787644092219021,0.4142025944296071,0.2886342046394754,0.2049731597457889,0.1262519338816057,0.078733085857981
0.0958960610435141,0.7239801753717117,0.8583170518089335,0.5730807357638507,0.1091836734693877,0.8309846431797651,0.6893011527377523,0.4168256390690577,0.2903502589403365,0.2066391065588943,0.1293868577477404,0.0818464854508442
0.1060012373685296,0.7325581395348837,0.8577780772081116,0.5627271725961008,0.1136904761904761,0.8346883468834688,0.7038904899135447,0.4245993895459748,0.295253271228511,0.2116369469982106,0.1351274326194935,0.0907076996766854
0.0973396576613734,0.7212161646969119,0.8554200633295156,0.5738517457869808,0.1116496598639455,0.82773261065944,0.7060518731988473,0.4242178557802365,0.2947629699996936,0.2106497192571111,0.1336210406318703,0.0901688420548437
0.0807382965559909,0.6976744186046511,0.8496260863706798,0.5963211807467782,0.1084183673469387,0.8127371273712737,0.6902917867435159,0.4142979778710416,0.2886342046394754,0.2038625285370519,0.1251933881605732,0.0790324512034486
0.0766137347906784,0.6863324437666792,0.8443037121875632,0.6051327238682673,0.1100340136054421,0.8037940379403794,0.6763328530259367,0.4101011064479207,0.2849263015965434,0.2009933979144814,0.1219363244035501,0.0746617171596216
0.0955867189111157,0.6979603507434234,0.8401940308562958,0.5882806476484194,0.1204931972789115,0.8065040650406504,0.6758825648414987,0.4144410530331934,0.2871939447798241,0.2040476337385081,0.126374073772494,0.0817267393126571
0.1067230356774592,0.7070148684712161,0.8392508253048574,0.5771560744575394,0.1256802721088435,0.8101174345076785,0.6829070605187321,0.4176840900419687,0.2896760947507125,0.2063305978898007,0.1303639768748473,0.0877140462220093
0.0995050525881625,0.69834159359512,0.8377686451525972,0.5859676175790285,0.1236394557823129,0.8050587172538392,0.6792146974063401,0.4144887447539107,0.2884196978518678,0.2044795458752391,0.128491165214559,0.0856783618728296
0.0889874200866158,0.6834731223789553,0.8341979384221518,0.6001762308624298,0.1215986394557823,0.7955736224028906,0.6652557636887608,0.404950400610454,0.2817086997824288,0.1986795828962794,0.1207149254946665,0.075739432403305
0.0882656217776861,0.6799466260007624,0.8321767836690694,0.6025994052208393,0.1225340136054421,0.7925925925925926,0.6555295389048992,0.4011350629530713,0.2789507553703307,0.1962115135435306,0.1168471622832016,0.0714884444976649
0.0975458857496391,0.6901448722836446,0.8333221046958161,0.5916951206079964,0.1255952380952381,0.798193315266486,0.6639949567723343,0.4060950019076689,0.2815554806484234,0.1988338372308262,0.1208777786825177,0.0772961321997365
0.1082697463394514,0.7011056042699199,0.8341305665970491,0.5796893931049675,0.1295918367346938,0.8038843721770552,0.6760626801152738,0.4108641739793972,0.2849263015965434,0.2024742395261307,0.1265369269603452,0.0848401389055203
0.1011548772942874,0.6967213114754097,0.8356127467493095,0.5859676175790285,0.1256802721088435,0.8028003613369467,0.6743515850144093,0.4089565051507058,0.2844053565409248,0.202073178256309,0.1257633743180522,0.0847802658364267
0.0888843060424829,0.6850934044986655,0.8353432594488984,0.5992950765502808,0.1207482993197279,0.7971996386630532,0.6642651296829971,0.40309042350248,0.280421659056783,0.1977232060220892,0.1202670792280758,0.0774757514070171
0.0852753144978346,0.6788028974456728,0.8333894765209189,0.6048022910012115,0.1204931972789115,0.7928635953026197,0.6672370317002883,0.4048073254483022,0.2797781386939601,0.1959338557413463,0.1180685611920853,0.073224763501377
0.0972365436172406,0.686141822340831,0.8306272316917065,0.5942284392554246,0.1272108843537414,0.7944896115627824,0.6813760806916427,0.4111980160244182,0.282781233720467,0.1986178811624607,0.1210813451673316,0.07735600526883
0.1017735615590843,0.6991993900114372,0.8368928114262615,0.5843154532437492,0.1250850340136054,0.804878048780488,0.6911023054755044,0.4146318199160625,0.2859988355345815,0.2022582834577652,0.1256412344271639,0.0823853430726859
0.0952773767787172,0.7126382005337399,0.8507040355723235,0.5799096816830047,0.1137755102040816,0.820505871725384,0.6887608069164266,0.412008775276612,0.2860907670149848,0.2026901955944962,0.1262112205846429,0.0796311818943839
0.0863064549391627,0.7132100648112847,0.8569696153068785,0.5844255975327679,0.1060374149659864,0.8250225835591688,0.6773234870317003,0.4068580694391454,0.2836699046976986,0.2009008453137533,0.1229948701245826,0.0747814632978086
0.0854815425861002,0.7188333968738085,0.8614835275887623,0.581561846018284,0.102891156462585,0.830713640469738,0.6725504322766571,0.4039488744753911,0.2828118775472681,0.2013327574504843,0.1228727302336943,0.0738234941923123
0.0937306661167251,0.7359893252001525,0.8682207100990366,0.5673532327348827,0.1020408163265306,0.8433604336043361,0.685698847262248,0.4126287676459366,0.2889406429074863,0.2069784660948972,0.1293054311538148,0.0816069931744701
0.1037327283976077,0.7447579107891728,0.8678164791484201,0.5568895252781143,0.1064625850340136,0.8471544715447156,0.7058717579250721,0.4233117130866081,0.2972144761437809,0.2144443758869624,0.1384252096734793,0.0929230032331457
0.1036296143534749,0.73131910026687,0.858451795459139,0.5647097697984359,0.1122448979591836,0.8345980126467932,0.707042507204611,0.4243609309423883,0.2974596267581896,0.2134262972789535,0.1374073772494096,0.0920249071967429
0.0967209733965766,0.7113991612657262,0.8488849962945496,0.5799096816830047,0.1154761904761904,0.8186991869918699,0.6996577809798271,0.4216425028615033,0.2934452854472467,0.2089837724440057,0.1314632358928426,0.0849000119746138
0.0963085172200453,0.7066336256195195,0.8457858923398234,0.5828835774865073,0.1172619047619047,0.8143631436314362,0.695335014409222,0.4198779091949638,0.2916066558391812,0.2065157030912568,0.1275954726813777,0.0808885163453478
0.1095071148690451,0.7160693861990086,0.8437647375867412,0.5703271285383852,0.1239795918367346,0.8174345076784101,0.6971361671469741,0.4235024799694773,0.2936291484080532,0.2095699389152835,0.131381809298917,0.0884923961202251
0.11775623839967,0.7252192146397255,0.8449100586134878,0.5606344311047472,0.1267006802721088,0.822583559168925,0.7064121037463977,0.4282239603204884,0.2967854625685656,0.2131794903436787,0.137529517140298,0.0959166566878218
0.1096102289131779,0.7153069004956155,0.8432257629859192,0.5707677056944597,0.1243197278911564,0.8168021680216802,0.7013688760806917,0.4251239984738649,0.2948242576532958,0.2124082186709446,0.1365931113101539,0.0949586875823254
0.0978552278820375,0.7002478078536026,0.8402614026813987,0.5857473290009912,0.121343537414966,0.8076784101174346,0.6858789625360231,0.4151087371232353,0.2900744644991266,0.2079965447029061,0.130608256656624,0.0858579810801101
0.0921839554547329,0.6976744186046511,0.8421478137842755,0.5902632448507544,0.1178571428571428,0.8076784101174346,0.6790345821325648,0.4108164822586799,0.2868262188582111,0.2052816684148825,0.1275954726813777,0.0824452161417794
0.0978552278820375,0.7007243614182234,0.8405308899818096,0.5854168961339353,0.1212585034013605,0.8080397470641373,0.6833573487031701,0.4147272033574971,0.2884196978518678,0.2073486764978096,0.1299161306082566,0.0862172194946712
0.1035265003093421,0.7019634006862371,0.8377686451525972,0.5816719903073025,0.1253401360544217,0.8067750677506775,0.6938940922190202,0.4208794353300267,0.292219532375203,0.2100944036527426,0.1339467470075726,0.0914261765058076
0.0999175087646937,0.6964353793366374,0.836219093175234,0.5868487718911773,0.1248299319727891,0.8030713640469739,0.6911023054755044,0.4190194582220526,0.2911163546103638,0.2093848337138273,0.132725348098689,0.0895102382948149
0.0888843060424829,0.6834731223789553,0.8341979384221518,0.6001762308624298,0.1215136054421768,0.7956639566395663,0.6694884726224783,0.4093857306371614,0.2851101645573499,0.2037391250694144,0.1256412344271639,0.0809483894144413
0.087234481336358,0.679756004574914,0.8327831300949943,0.6032602709549509,0.1217687074829931,0.7928635953026197,0.657420749279539,0.4028996566196108,0.2815554806484234,0.1992657493675572,0.1216513313248106,0.0764579092324272
0.1007424211177562,0.6884292794510102,0.8300208852657818,0.5910342548738848,0.1290816326530612,0.7952122854561879,0.6652557636887608,0.4080503624570775,0.2843134250605216,0.2017029678533967,0.1249083950818337,0.0815471201053766
0.1128067642812951,0.6959588257720166,0.8274607559118776,0.5802401145500605,0.1356292517006802,0.797018970189702,0.6750720461095101,0.4124380007630676,0.2875310268746361,0.2049423088788795,0.1290204380750753,0.0887318883965992
0.1065168075891936,0.6906214258482652,0.8278649868624941,0.5867386276021588,0.1328231292517006,0.7947606142728094,0.6768731988472623,0.4109595574208317,0.2853553151717586,0.2038008268032332,0.1276361859783405,0.0863968387019518
0.0933182099401938,0.6772779260388866,0.8269217813110558,0.6013878180416344,0.127891156462585,0.7878048780487804,0.6630043227665707,0.4022319725295689,0.2801152207887721,0.1990497932991917,0.1211627717612572,0.0775356244761106
0.0925964116312641,0.6748951582157834,0.8257764602843091,0.6032602709549509,0.1283163265306122,0.7859078590785907,0.6521974063400577,0.3979874093857307,0.2764073177458401,0.1958721540075276,0.1166028825014249,0.073224763501377
0.1048669828830686,0.6866183759054516,0.82604594758472,0.58982266769468,0.1332482993197279,0.7916892502258357,0.6623739193083574,0.4034719572682183,0.2789813991971318,0.1991731967668291,0.1212441983551827,0.079870674170758
0.1148690451639513,0.6930995043842927,0.8240247928316378,0.5807908359951536,0.1386904761904761,0.7933152664859981,0.6746217579250721,0.4101011064479207,0.2832102472956823,0.2029061516628617,0.1264555003664196,0.0868159501856065
0.1165188698700763,0.6872855508959206,0.8189045341238294,0.5832140103535631,0.1426020408163265,0.7871725383920506,0.6747118155619597,0.4110549408622664,0.2833328226028866,0.2024742395261307,0.125804087615015,0.0864567117710453
0.0995050525881625,0.6672703011818528,0.815872801994206,0.6039211366890627,0.1374149659863945,0.7757000903342367,0.6621037463976945,0.403758107592522,0.2780927282199001,0.1959955574751651,0.1179871345981597,0.0763381630942402
0.0943493503815219,0.6678421654593976,0.8196456241999596,0.6063443110474721,0.1329931972789115,0.7784101174345076,0.6572406340057637,0.3990843189622282,0.275028345539791,0.1938359967915098,0.1146893575441739,0.0708298407376362
0.1014642194266859,0.6887152115897825,0.8297513979653709,0.5904835334287917,0.1295068027210884,0.7951219512195122,0.6663364553314122,0.401421213277375,0.2780007967394968,0.1977849077559079,0.1194935265857829,0.0760387977487726
0.1074448339863889,0.704155547083492,0.8367580677760561,0.578367661636744,0.1275510204081632,0.8071364046973803,0.6821865994236311,0.4101964898893552,0.2842521374069194,0.2030912568643179,0.1261705072876801,0.084121662076398
0.1004330789853578,0.7024399542508577,0.840126659031193,0.5831038660645446,0.1225340136054421,0.8085817524841916,0.6875000000000001,0.411674933231591,0.2852327398645543,0.2041710372061455,0.1264147870694568,0.0825050892108729
0.0828005774386471,0.6997712542889819,0.8497608300208852,0.5941182949664059,0.1091836734693877,0.8137308039747064,0.6769632564841499,0.4023750476917207,0.2802684399227776,0.2009933979144814,0.1220991775914013,0.0733445096395641
0.0742421117756238,0.7274113610369805,0.8748231489591053,0.5826632889084701,0.0897959183673469,0.8437217705510389,0.6846181556195966,0.3981781762685998,0.2830876719884779,0.2042944406737829,0.1243384089243546,0.0717878098431325
0.0689832955248504,0.7896492565764391,0.9223202856565385,0.5495098579138671,0.0576530612244898,0.9049683830171634,0.7056015850144093,0.4011350629530713,0.2919743817607943,0.2153390510273339,0.1339874603045354,0.0762782900251466
0.0620746545679521,0.8271063667556232,0.9533786970289024,0.5315563388038329,0.035204081632653,0.9435411020776874,0.7344200288184439,0.4062857687905379,0.3020562007783532,0.2286974763990868,0.1446543441087859,0.0809483894144413
0.0742421117756238,0.8198627525733891,0.9402411911338676,0.529243308734442,0.0485544217687075,0.931345980126468,0.774585734870317,0.438763830599008,0.3330677535010573,0.2623249213302894,0.1737643514371793,0.1041192671536342
0.1354918539905135,0.8093785741517346,0.8928114262615374,0.5025883907919374,0.1037414965986394,0.894579945799458,0.8213256484149856,0.5144028996566197,0.4087580056997518,0.3443573764422781,0.2513231821512905,0.1744701233385223
0.2553103732728397,0.7968928707586732,0.805699656403692,0.4457539376583323,0.2081632653061224,0.8302619692863596,0.8427593659942364,0.6129816863792446,0.520362822909325,0.472758684519035,0.3731780799609152,0.2930188001436953
0.4333883274902042,0.7930804422417079,0.6866536414471468,0.3529023020156404,0.3566326530612244,0.7486901535682023,0.8139409221902019,0.7196680656238077,0.6587503447430517,0.6322885173073364,0.5259750834622587,0.4519817985869955
0.6263147040626933,0.8130956919557758,0.5747490399514923,0.2382420971472629,0.5068027210884353,0.6831074977416441,0.7409041786743517,0.8248760015261349,0.7998958109888764,0.7914789905596349,0.6799527725755232,0.6210034726380074
0.7836667354093627,0.8429279451010293,0.4930270161018661,0.1370194955391563,0.6232993197278911,0.6424570912375791,0.6295028818443804,0.8754292254864555,0.8720007354518433,0.8753933485530943,0.7783568113345818,0.7491917135672373
0.9166838523406888,0.8486465878764773,0.4101596712254934,0.0626721004515915,0.7304421768707483,0.5896115627822944,0.4660482708933718,0.8636016787485692,0.8765666656452058,0.8764114271611033,0.815039491898054,0.8340917255418512
0.956382759331821,0.793842927945101,0.3454827191268611,0.0731358079083599,0.7876700680272108,0.5203252032520325,0.3430295389048991,0.8028901182754675,0.8292219532375205,0.809495896834701,0.77102841788128,0.8297808645671176
0.8300680552691276,0.6841402973694242,0.3504008623593613,0.2039872232624738,0.7323979591836735,0.4716350496838302,0.2617975504322766,0.6039679511636781,0.6298225722428218,0.6195471092737707,0.6052845859457698,0.6872230870554423
0.5911528150134048,0.6191383911551658,0.46068854005255,0.3690935125013768,0.5643707482993197,0.5147244805781391,0.1455331412103746,0.2975486455551316,0.3144363068059939,0.3363670019127538,0.3521293054311538,0.4438989342593701
0.3433697669622602,0.6448722836446816,0.6407060567270767,0.4866174688842383,0.3485544217687074,0.6476061427280939,0.0611491354466858,0.065623807706982,0.0638004473998713,0.0886962423644104,0.1074831039817604,0.1863848640881331
0.2434522581975665,0.6563095691955775,0.7140739742639628,0.5334287917171494,0.2610544217687074,0.7021680216802167,0.057907060518732,0.033479587943533,0.0149848313057334,0.0255445178009502,0.0252015308199657,0.08262483534906
0.2193235718704888,0.6714639725505146,0.7404837297042377,0.5375041304108381,0.234438775510204,0.7271002710027101,0.1845280979827089,0.1477012590614269,0.1000827383323629,0.0835749984574566,0.0580571614689357,0.0875344270147287
0.1955042276758094,0.7015821578345405,0.7774034898605403,0.5327679259830378,0.201360544217687,0.7661246612466124,0.363742795389049,0.2745135444486837,0.1903288082615757,0.1466650212870982,0.1003175637163097,0.10064662914621
0.1612703650237162,0.695482272207396,0.7954591389880752,0.5545764952087233,0.1758503401360544,0.7753387533875339,0.5023414985590778,0.3592617321632965,0.2453957650231361,0.1801690627506633,0.1164400293135737,0.093761226200455
0.1435347494328727,0.6719405261151352,0.7904062521053695,0.5777067959026324,0.1716836734693877,0.760794941282746,0.5688940922190202,0.3927890118275467,0.268960867833175,0.1915221817733078,0.120429932415927,0.0895102382948149
0.1211590018560528,0.6501143728555089,0.7896651620292393,0.6022689723537834,0.1629251700680272,0.7499548328816622,0.5922190201729107,0.3966043494849294,0.2718413875524776,0.189054112420559,0.1144043644654344,0.0781942282361393
0.1055887811919983,0.6449675943576056,0.7961328572391025,0.6135036898336821,0.1524659863945578,0.7518518518518519,0.6174351585014409,0.3961274322777566,0.2714736616308644,0.1861541309310792,0.1082566566240534,0.0684349179738953
0.104145184574139,0.649542508577964,0.8003099103954726,0.6116312369203656,0.1491496598639455,0.7568202348690154,0.6523775216138329,0.404950400610454,0.2747831949253823,0.186740297402357,0.1080938034362022,0.067476948868399
0.104145184574139,0.6491612657262675,0.8000404230950616,0.6119616697874215,0.1493197278911564,0.7564588979223125,0.6754322766570605,0.4119610835558946,0.2763153862654369,0.1857222187943481,0.1058138588062861,0.0653215183810322
0.0887811919983501,0.6436332443766678,0.8061712591794112,0.6233065315563387,0.1392006802721088,0.7579945799457993,0.6758825648414987,0.4071919114841663,0.2730977844513223,0.1814339482939471,0.1003989903102353,0.0586756077116512
0.0701175500103114,0.6374380480365992,0.8139863908913292,0.6368542791056283,0.1265306122448979,0.7602529358626919,0.6678674351585014,0.4018027470431133,0.2695124567155947,0.1770839760597273,0.093152023450859,0.046940486169321
0.0678490410393895,0.645920701486847,0.8214646634777335,0.6332195175680141,0.1208333333333333,0.7692863595302619,0.6712896253602305,0.4005627623044639,0.2700334017712132,0.1757573887826248,0.0906277990391661,0.0436474673691773
0.0808414106001237,0.668890583301563,0.8292124233645489,0.612952968388589,0.121343537414966,0.7853658536585366,0.692092939481268,0.4119610835558946,0.2771734134158674,0.1812488430924909,0.0975897728198029,0.0517902047658963
0.0835223757475768,0.6864277544796035,0.8398571717307821,0.6013878180416344,0.1157312925170068,0.8008130081300813,0.715057636887608,0.4242178557802365,0.2853859589985598,0.1876349725427284,0.1048367396791792,0.0592144653334929
0.0701175500103114,0.6882386580251619,0.8498955736710907,0.6075558982266769,0.1039115646258503,0.8084010840108401,0.7260446685878963,0.4280808851583366,0.2890325743878896,0.1891466650212871,0.1054067258366582,0.0586756077116512
0.0551660136110538,0.679756004574914,0.8536683958768443,0.6204427800418548,0.0953231292517006,0.8068654019873531,0.7221721902017292,0.4247424647081267,0.2873165200870284,0.1869254026038131,0.1014575360312677,0.0504131241767453
0.0586718911115694,0.6769919939001143,0.8494239708953715,0.6201123471747989,0.0994897959183673,0.8028003613369467,0.7264949567723343,0.4264116749332316,0.2888180676002819,0.1875424199420004,0.1016203892191189,0.049694647347623
0.0696019797896473,0.6818528402592451,0.8457185205147207,0.6114109483423283,0.1062925170068027,0.8026196928635954,0.7498198847262249,0.4394792064097673,0.2956209971501241,0.192910470784229,0.106790977933393,0.0573584001915938
0.0764075067024128,0.6871902401829965,0.8450448022636932,0.6048022910012115,0.1095238095238095,0.8046070460704607,0.7664805475504323,0.4488267836703548,0.3010143106671161,0.1972604430184488,0.1106180278478951,0.0629265956172913
0.0699113219220457,0.6808997331300037,0.8449100586134878,0.6118515254984029,0.1069727891156462,0.8015356820234868,0.7656700288184438,0.4475391072109881,0.3012288174547238,0.1961189609428025,0.1080123768422766,0.0592743384025865
0.0611466281707568,0.6712733511246664,0.8436973657616385,0.622094944377134,0.1040816326530612,0.7962059620596205,0.7563040345821326,0.4428176268599771,0.2985934483498299,0.1931264268525946,0.1032082078006677,0.0532271584241408
0.0692926376572489,0.6671749904689286,0.8354780030991038,0.6201123471747989,0.1125850340136054,0.7887985546522132,0.7518011527377522,0.4415776421213277,0.2975822020653939,0.1929721725180477,0.1032896343945932,0.0522691893186444
0.0820787791297174,0.661742279832253,0.8233510745806103,0.6164775856371847,0.1255952380952381,0.7780487804878048,0.755763688760807,0.4470621900038153,0.3005240094382987,0.1960264083420744,0.1085416497027929,0.0586157346425577
0.0904310167044751,0.6546892870758673,0.8129084416896853,0.6160370084811102,0.1356292517006802,0.7677506775067751,0.7563940922190202,0.4525467378863029,0.3011981736279226,0.1973221447522675,0.1111880140053741,0.066339360555622
0.0856877706743658,0.6340068623713304,0.8014552314222192,0.6304659103425487,0.1409013605442176,0.7502258355916892,0.7401837175792508,0.4466806562380771,0.295590353323323,0.1923551551798606,0.1068724045273186,0.0614297688899532
0.0706331202309754,0.6066526877621043,0.7918884322576298,0.654367221059588,0.1407312925170068,0.7308943089430895,0.7216318443804034,0.4340900419687142,0.2873471639138296,0.1845498858517925,0.0970604999592867,0.0502335049694647
0.068673953392452,0.5949294700724361,0.7848817624469447,0.6621874655799097,0.1443027210884353,0.7205962059620596,0.714157060518732,0.4306085463563525,0.2830876719884779,0.1803850188190288,0.0930298835599706,0.0464615016165728
0.0819756650855846,0.5993137628669462,0.7792899009634171,0.6524947681462715,0.1533163265306122,0.7189701897018971,0.7195605187319886,0.4343285005723006,0.2855391781325652,0.1813105448263096,0.0945769888445566,0.0499940126930906
0.0831099195710455,0.6003621807091116,0.7792899009634171,0.6512831809670668,0.1537414965986394,0.7194218608852754,0.7293768011527378,0.4384776802747043,0.2873471639138296,0.1820201147652249,0.0967755068805471,0.0537660160459825
0.0768199628789441,0.5943576057948913,0.7791551573132115,0.6582222711752396,0.1512755102040816,0.7164408310749775,0.725414265129683,0.4346146508966044,0.2848343701161401,0.1789658789411982,0.0927448904812311,0.048437312896659
0.0580532068467725,0.58187190240183,0.7825911203934515,0.6754047802621435,0.1414115646258503,0.7128274616079493,0.715057636887608,0.4260301411674933,0.2784604541415132,0.172178688221139,0.0846429443856363,0.0377799065980122
0.0554753557434522,0.5821578345406022,0.7844775314963283,0.676616367441348,0.1391156462585034,0.7142728093947607,0.7145172910662825,0.4238363220144983,0.2752122085005976,0.1687233911272907,0.0804087615015063,0.0335887917614656
0.0682614972159208,0.5956919557758291,0.7856902243481775,0.6619671770018724,0.1436224489795918,0.7214995483288167,0.7276657060518733,0.4333269744372377,0.2802377960959765,0.1719627321527735,0.0840729582281573,0.040055083223566
0.0723860589812332,0.6060808234845596,0.7903388802802667,0.653816499614495,0.1423469387755102,0.7295392953929539,0.7393731988472623,0.4400515070583747,0.2829650966812735,0.173628678965879,0.0859457698884455,0.0417315291581846
0.0570220664054444,0.5968356843309187,0.7937748433605066,0.6673642471637845,0.133843537414966,0.727461607949413,0.7409942363112392,0.4368084700495994,0.2789201115435296,0.1687233911272907,0.0796759221561762,0.034546760866962
0.0451639513301711,0.587018680899733,0.7945833052617395,0.6792598303777949,0.1284863945578231,0.7233965672990065,0.7328890489913544,0.4272701259061428,0.2725461955689026,0.161380884802863,0.0709225633091767,0.023410370015567
0.0423798721385852,0.5929279451010293,0.8006467695209862,0.6773873774644784,0.123469387755102,0.7302619692863597,0.7382024495677233,0.4289870278519649,0.2720558943400852,0.1589745171839329,0.0677469261460793,0.0204765896299844
0.0491853990513507,0.6128478841021731,0.8102809405106783,0.6621874655799097,0.1202380952380952,0.7460704607046069,0.7575648414985591,0.4392407478061809,0.277694358471486,0.1624915160115999,0.0725510951876882,0.0270027541611783
0.0598061455970303,0.6313381624094547,0.8163444047699252,0.6458861108051547,0.1207482993197279,0.7589882565492322,0.7735050432276657,0.4498283098054178,0.2839456991389085,0.1669648917134571,0.0777216839019623,0.0336486648305592
0.0530006186842647,0.6269538696149446,0.8177592130970828,0.6520541909901971,0.1170918367346938,0.7578139114724481,0.7789085014409223,0.4526421213277375,0.2845585756749303,0.1656074535694453,0.0763781451021903,0.0314932343431924
0.0439265828005774,0.6231414410979793,0.8209930607020143,0.6591034254873884,0.1113095238095238,0.758175248419151,0.7794488472622478,0.4527375047691721,0.2833021787760856,0.1621521564755969,0.0723068154059115,0.0253861812956532
0.041967415962054,0.6293366374380479,0.8265849221855419,0.6565701068399602,0.1069727891156462,0.7648599819331525,0.7922370317002881,0.4612266310568486,0.2876536021818405,0.1634170420188807,0.0728360882664278,0.0251466890192791
0.0566096102289131,0.6398208158597025,0.8244963956073569,0.642691926423615,0.1143707482993197,0.7684733514001807,0.8167327089337177,0.4770125906142693,0.2971838323169798,0.1695872154007527,0.0804087615015063,0.0359837145252065
0.0723860589812332,0.6522112085398398,0.8228794718048911,0.6271615816719902,0.1218537414965986,0.7731707317073171,0.8376260806916427,0.4917016405951926,0.3054883093800754,0.1764978095884494,0.088551420894064,0.0466411208238534
0.0705300061868426,0.6475409836065573,0.8207909452267061,0.6307963432096045,0.1224489795918367,0.7695573622402889,0.844920749279539,0.4977584891262877,0.3083381852725769,0.1768988708582711,0.0877371549548082,0.0458028978565441
0.0603217158176943,0.6322912695386961,0.8167486357205416,0.6451151007820244,0.1207482993197279,0.759620596205962,0.8383465417867435,0.498998473864937,0.3075108019489473,0.1738137841673351,0.0829329859131992,0.0396359717399113
0.0707362342751082,0.6333396873808615,0.8106851714612948,0.6388368763079634,0.1289115646258503,0.7560975609756097,0.8347442363112392,0.5018122853872568,0.309073637115803,0.17406059110261,0.082973699210162,0.0412525446054364
0.0950711486904516,0.6430613800991231,0.8016573468975274,0.6202224914638176,0.1446428571428571,0.7546522131887986,0.8430295389048992,0.513449065242274,0.3170410320840867,0.1814339482939471,0.0920527644328637,0.0544844928751047
0.1052794390595999,0.6370568051849027,0.7907431112308833,0.6183500385505012,0.1556972789115646,0.7444444444444445,0.8522154178674352,0.5246089278901183,0.3256825912419943,0.188622200283828,0.1009282631707515,0.0660399952101544
0.1071354918539905,0.6153259626382005,0.7741696422556087,0.6299151888974557,0.166921768707483,0.7231255645889793,0.8404178674351586,0.5266119801602442,0.3282873165200871,0.1909668661689394,0.1028010748310398,0.0681954256975212
0.1090946586925139,0.5946435379336636,0.7582698915313615,0.6407093292212799,0.1778061224489795,0.7026196928635953,0.8175432276657061,0.5212228157191912,0.3280115220788772,0.1916455852409453,0.102760361534077,0.0677763142138666
0.1247679934007011,0.5957872664887532,0.7488378360169777,0.6316774975217534,0.1902210884353741,0.6968383017163505,0.8034041786743517,0.5207935902327356,0.3308001103177765,0.1961806626766212,0.1085416497027929,0.0754400670578373
0.1485873375953804,0.6134197483797178,0.7457387320622515,0.6088776296949003,0.2019557823129251,0.7030713640469738,0.7968299711815563,0.5247043113315529,0.3378481904820274,0.2067625100265317,0.1224655972640664,0.0922045264040234
0.1586925139203959,0.6217117804041173,0.7449976419861213,0.5986342108161692,0.206547619047619,0.706594399277326,0.7864733429394812,0.5241797024036627,0.34241412067539,0.2164188313691614,0.1343538799772005,0.1065740629864686
0.159723654361724,0.6204727411361036,0.7434480900087583,0.5987443551051878,0.2079931972789115,0.7048780487804878,0.7641390489913544,0.5125429225486456,0.3396255324364907,0.2191028567902758,0.1374888038433352,0.1092084780265836
0.149927820169107,0.6168509340449865,0.7472882840396146,0.606124022469435,0.2015306122448979,0.7057813911472448,0.7330691642651297,0.4944200686760778,0.33230165783103,0.2171284013080767,0.1367152512010422,0.1062148245719075
0.1508558465663023,0.6260960731986275,0.7532170046486558,0.6002863751514483,0.1982142857142857,0.7141824751580849,0.716228386167147,0.4833078977489508,0.3284098918272914,0.2195039180600975,0.1403794479276931,0.1087294934738354
0.1574551453908022,0.6448722836446816,0.7621774573873206,0.5858574732900099,0.1952380952380952,0.7290876242095754,0.7198306916426513,0.4802079359023274,0.3298501516869427,0.2250879249706917,0.1478299812718833,0.1159741348341516
0.1609610228913178,0.661742279832253,0.7718116283770128,0.5742923229430553,0.1905612244897959,0.7435411020776873,0.7153278097982709,0.4740080122090805,0.3288695492293078,0.2280187573270809,0.1521455907499389,0.1214824571907555
0.1458032584037945,0.662409454822722,0.7821868894428349,0.5820024231743584,0.1778061224489795,0.7507678410117433,0.7022694524495678,0.4625619992369325,0.3231085097907027,0.2260134509779725,0.1503134923866134,0.1184289306669859
0.1280676428129511,0.6562142584826534,0.7893956747288284,0.5951095935675735,0.1659013605442176,0.7526648599819331,0.6871397694524496,0.4500667684090042,0.3149878956884136,0.2205219966681064,0.1440843579513069,0.107651778230152
0.1252835636213652,0.6592642012962255,0.7933706124098902,0.5947791607005176,0.1622448979591836,0.7568202348690154,0.6822766570605188,0.4422453262113697,0.3086139797137867,0.2161411735669772,0.1392801889096979,0.1009459944916776
0.1280676428129511,0.6736561189477696,0.8017247187226303,0.584976318977861,0.1581632653061224,0.7691960252935862,0.6905619596541788,0.4397653567340709,0.3071430760273343,0.2166039365706177,0.1402980213337676,0.1017243443898934
0.1281707568570839,0.685474647350362,0.8100788250353702,0.5780372287696883,0.152891156462585,0.7803974706413731,0.6958753602305476,0.4368084700495994,0.3061318297428983,0.2176220151786265,0.1413158537578372,0.1044186324991019
0.1228088265621777,0.6845215402211208,0.8128410698645826,0.5814517017292653,0.1489795918367346,0.7818428184281843,0.6938040345821326,0.4328023655093475,0.303986761866822,0.2162028753007959,0.1390359091279211,0.1002873907316489
0.106826149721592,0.6784216545939763,0.8189045341238294,0.5935675735213128,0.1386054421768707,0.7829268292682928,0.6876801152737753,0.4240270888973674,0.2998498452486747,0.2125007712716727,0.1331324810683169,0.0915459226439947
0.1029078160445452,0.6864277544796035,0.8271912686114667,0.5910342548738848,0.1317176870748299,0.7923215898825656,0.6918227665706052,0.423788630293781,0.2995740508074648,0.2121305608687604,0.1331731943652797,0.0901089689857502
0.110641369354506,0.7012962256957681,0.8326483864447887,0.578367661636744,0.1314625850340136,0.8029810298102982,0.7038004322766572,0.4313239221671118,0.3047222137100481,0.2170358487073487,0.1391580490188095,0.0966950065860376
0.1190967209733965,0.713495996950057,0.8357474903995149,0.566692367000771,0.1329931972789115,0.8109304426377596,0.7145172910662825,0.4383822968332697,0.3085833358869856,0.2212007157401123,0.1447764839996742,0.1042988863609148
0.1093008867807795,0.7112085398398779,0.8405308899818096,0.5733010243418878,0.1259353741496598,0.8130081300813009,0.7101945244956773,0.4349008012209081,0.308031747004566,0.2211081631393842,0.1431886654181255,0.1015447251826128
0.0978552278820375,0.7009149828440716,0.8408003772822206,0.5854168961339353,0.1210034013605442,0.8083107497741645,0.7031700288184438,0.4336131247615414,0.3067753501057212,0.2195656197939162,0.1397280351762885,0.0947790683750449
0.1040420705300061,0.7029165078154783,0.8381055042781108,0.5809009802841723,0.1253401360544217,0.8074074074074074,0.7064121037463977,0.4364746280045784,0.3084914044065823,0.2204294440673783,0.1416008468365768,0.0966950065860376
0.1167250979583419,0.7113991612657262,0.8358148622246176,0.5692256856481991,0.1319727891156462,0.809936766034327,0.7234329971181557,0.4470621900038153,0.3152943339564245,0.2266921700499784,0.1492956599625437,0.1083103819901808
0.119921633326459,0.7063476934807471,0.8300882570908845,0.5704372728274039,0.1369047619047619,0.8037037037037036,0.7351404899135447,0.4548359404807325,0.3206263598198143,0.2307027827481952,0.1551583747251852,0.1142378158304394
0.1151783872963497,0.6921463972550514,0.8232163309304049,0.5812314131512281,0.1392857142857143,0.7923215898825656,0.7292867435158501,0.4524990461655856,0.3195844697085772,0.2294995989387302,0.1533262763618597,0.1102263202011735
0.107960404207053,0.6805184902783071,0.8197129960250623,0.5916951206079964,0.1385204081632653,0.7845528455284553,0.717399135446686,0.4472052651659671,0.3158765666656452,0.2266304683161597,0.1486849605081019,0.1038797748772602
0.110125799133842,0.6777544796035073,0.8162770329448225,0.5921356977640709,0.1415816326530612,0.7808491418247515,0.7153278097982709,0.4474437237695536,0.3157539913584408,0.2264762139816129,0.1488885269929158,0.1039995210154472
0.1266240461950917,0.6829965688143346,0.8092703631341371,0.5803502588390791,0.1528061224489796,0.7786811201445347,0.7281159942363113,0.4550743990843189,0.3202892777250023,0.2302400197445548,0.1541405423011155,0.1110046700993892
0.1358011961229119,0.6808997331300037,0.8017920905477328,0.5767154973014649,0.1613095238095238,0.7727190605239385,0.7375720461095101,0.4620373903090423,0.3249471393987681,0.2343740359104091,0.1584968650761338,0.1188480421506406
0.1288925551660136,0.6613610369805565,0.7924947786835544,0.5916951206079964,0.1642857142857142,0.7571815718157182,0.7288364553314121,0.458269744372377,0.3224649894278797,0.2329857468994879,0.1564204869310316,0.1169919770087414
0.1288925551660136,0.6466831871902401,0.7821868894428349,0.6001762308624298,0.1708333333333333,0.743360433604336,0.7110050432276657,0.4501621518504388,0.3166120185088714,0.2276485469241686,0.1508834785440924,0.1094479703029577
0.1318828624458651,0.6425848265345023,0.7772687462103347,0.6008370965965414,0.1751700680272108,0.7380307136404698,0.7027197406340058,0.4479683326974437,0.3148959642080103,0.2257049423088789,0.1490106668838042,0.1080110166447132
0.1469375128892555,0.6493518871521158,0.7722158593276292,0.5889415133825311,0.1845238095238095,0.737940379403794,0.7128061959654179,0.4549313239221671,0.3189103055189532,0.2304559758129203,0.1551583747251852,0.1176505807687702
0.1467312848009899,0.6501143728555089,0.7728895775786565,0.5886110805154753,0.1840136054421768,0.7387533875338754,0.7264048991354467,0.459128195345288,0.3217601814114547,0.2333559573024002,0.1589447113427245,0.1225002993653454
0.1305423798721385,0.6427754479603507,0.7782793235868759,0.6014979623306531,0.1739795918367346,0.7388437217705509,0.7139769452449568,0.4506390690576116,0.3163362240676616,0.22854322206454,0.1529191433922319,0.1138785774158783
0.1176531243555372,0.637247426610751,0.7827932358687597,0.6116312369203656,0.1658163265306122,0.7392050587172537,0.6952449567723343,0.4411961083555895,0.3094107192106151,0.2223421978157586,0.1444914909209347,0.103520536462699
0.1160032996494122,0.6418223408311093,0.7871724045004379,0.6098689282960678,0.1623299319727891,0.7443541102077689,0.6921829971181557,0.4383822968332697,0.3072043636809365,0.2199049793299192,0.1412751404608745,0.1008861214225841
0.1282738709012167,0.6531643156690811,0.787105032675335,0.5967617579028527,0.1674319727891156,0.7496838301716351,0.7037103746397695,0.441291491797024,0.3087059111941899,0.2218485839452089,0.144247211139158,0.1048377439827565
0.1285832130336152,0.6601219977125428,0.7918210604325271,0.5924661306311267,0.164625850340136,0.7560975609756097,0.7101044668587896,0.4406714994276994,0.3093187877302117,0.2225581538841241,0.1457128898298184,0.1060950784337205
0.1133223345019591,0.6580251620282118,0.8003772822205754,0.601828395197709,0.1529761904761904,0.7608852755194219,0.6972262247838616,0.4323254483021747,0.3037722550792143,0.2185475411859073,0.1405830144125071,0.1000478984552748
0.1031140441328108,0.6570720548989706,0.8062386310045138,0.6078863310937327,0.1450680272108843,0.7643179765130984,0.6841678674351586,0.4236932468523465,0.2973676952777863,0.2121305608687604,0.1333360475531308,0.0905879535384983
0.1071354918539905,0.6682234083110941,0.8115610051876305,0.5992950765502808,0.14328231292517,0.7731707317073171,0.6861491354466859,0.4223101869515452,0.2964790243005546,0.2106497192571111,0.13215536194121,0.0889115076038797
0.1151783872963497,0.6843309187952725,0.8176918412719799,0.5857473290009912,0.1427721088435374,0.7850045167118338,0.7043407780979828,0.4288916444105303,0.300983666840315,0.2161720244338866,0.1384659229704421,0.0975931026224404
0.1164157558259434,0.690430804422417,0.82112780435222,0.5814517017292653,0.141156462585034,0.7901535682023486,0.7238832853025937,0.4390022892025945,0.3064076241841081,0.221601777009934,0.1446543441087859,0.1056759669500658
0.1062074654567952,0.6929088829584444,0.8296166543151653,0.585527040422954,0.131547619047619,0.797018970189702,0.7204610951008646,0.4348531095001908,0.3055495970336775,0.2214475226753872,0.1446950574057487,0.1029816788408573
0.0976489997937719,0.6988181471597407,0.839385568955063,0.5867386276021588,0.1218537414965986,0.8064137308039748,0.7001080691642652,0.424122472338802,0.3019029816443477,0.2182698833837231,0.1409494340851722,0.0973536103460663
0.1039389564858733,0.7106366755623331,0.8436299939365356,0.5764952087234276,0.1217687074829931,0.8148148148148149,0.6892110951008646,0.4217855780236551,0.3021174884319554,0.2184241377182699,0.1416415601335396,0.0983115794515626
0.119406063105795,0.7279832253145252,0.8457858923398234,0.5582112567463376,0.1267857142857142,0.8244805781391147,0.6959654178674352,0.4290824112933995,0.30702050072013,0.2238847411612266,0.1492549466655809,0.1083103819901808
0.1239430810476386,0.7296988181471596,0.8440342248871522,0.5547967837867607,0.1297619047619047,0.8241192411924119,0.696235590778098,0.4341854254101488,0.3102687463610456,0.2272783365212562,0.1534484162527481,0.1134594659322236
0.1140441328108888,0.7116850934044986,0.8377686451525972,0.5704372728274039,0.1296768707482993,0.8113821138211382,0.6880403458213257,0.4318008393742846,0.307725308736555,0.2240389954957734,0.1494992264473577,0.1088492396120225
0.102495359868014,0.6962447579107891,0.8343326820723572,0.5856371847119727,0.1270408163265306,0.8017163504968384,0.677143371757925,0.4256962991224723,0.3035577482916067,0.2200283827975566,0.1436365116847162,0.1017243443898934
0.1116725097958342,0.701200914982844,0.8319072963686586,0.577816940191651,0.1323979591836734,0.802439024390244,0.6760626801152738,0.4260778328882106,0.303343241503999,0.2203985932004689,0.1440843579513069,0.1010058675607711
0.1269333883274901,0.7140678612276018,0.8310314626423229,0.5622865954400265,0.1392006802721088,0.8080397470641373,0.6865994236311239,0.4324208317436093,0.3072350075077376,0.2246560128339606,0.14982493282306,0.1089689857502095
0.131367292225201,0.7135913076629812,0.8277976150373914,0.5601938539486727,0.1431122448979591,0.8056007226738933,0.6931736311239194,0.4360930942388402,0.3089510618085986,0.2266921700499784,0.1526748636104551,0.1139384504849718
0.1267271602392246,0.6951010293556995,0.8177592130970828,0.5733010243418878,0.1474489795918367,0.790063233965673,0.6863292507204611,0.4308946966806563,0.3046609260564459,0.2218177330782995,0.1479521211627717,0.1080110166447132
0.1216745720767168,0.6745139153640868,0.8065081183049247,0.5878400704923449,0.1524659863945578,0.7728093947606143,0.6724603746397695,0.4225009538344144,0.2980418594674103,0.2154933053618807,0.1406644410064327,0.0992096754879655
0.1242524231800371,0.6686999618757147,0.800714141346089,0.5899328119836986,0.1572278911564625,0.7661246612466124,0.6710194524495677,0.4215471194200686,0.2962338736861459,0.2141667180847782,0.1387102027522188,0.0979523410370015
0.1337389152402557,0.6691765154403354,0.7948527925621505,0.5845357418217866,0.1647959183673469,0.7625112917795845,0.6873198847262249,0.4289870278519649,0.2997272699414703,0.2179922255815388,0.1433108053090139,0.1057957130882529
0.1411631264178181,0.6633625619519633,0.7858923398234858,0.5839850203766934,0.1735544217687074,0.7536585365853659,0.6956952449567724,0.4346623426173217,0.303312597677198,0.2207071018695625,0.1470971419265532,0.1105256855466411
0.1349762837698494,0.6484940907357987,0.7794246446136225,0.5957704593016852,0.1750850340136054,0.7422764227642277,0.6858789625360231,0.4289870278519649,0.2988998866178408,0.2165113839698896,0.1415194202426512,0.1050173631900371
0.1242524231800371,0.6405833015630956,0.7808394529407802,0.606124022469435,0.169812925170068,0.7395663956639567,0.6740814121037465,0.4191148416634872,0.2920356694143965,0.2088295181094589,0.1319110821594332,0.0938210992695485
0.1202309754588574,0.6439191765154403,0.7858249679983831,0.6063443110474721,0.1649659863945578,0.7444444444444445,0.6739913544668589,0.4153948874475391,0.2892777250022983,0.2061454926883445,0.129061151372038,0.0904682074003113
0.1229119406063105,0.6542127335112466,0.7913494576568079,0.598964643683225,0.1625850340136054,0.7530261969286359,0.6836275216138329,0.4195440671499428,0.2918518064535899,0.2091380267785525,0.1332139076622424,0.0957969105496347
0.1247679934007011,0.6613610369805565,0.7951896516876642,0.5937878620993501,0.160969387755102,0.7589882565492322,0.6885806916426513,0.4204979015642884,0.2916679434927833,0.2093848337138273,0.1334581874440192,0.0969344988624116
0.1090946586925139,0.6521158978269157,0.798895102068315,0.6075558982266769,0.152125850340136,0.7570912375790424,0.6765129682997119,0.4095288057993133,0.2852327398645543,0.2040167828715987,0.1262519338816057,0.0875943000838223
0.0917714992782016,0.6440144872283644,0.8044869635518426,0.6215442229320409,0.1414965986394557,0.7570009033423668,0.6657961095100865,0.4018504387638306,0.2799007140011645,0.1992657493675572,0.1210813451673316,0.0795114357561968
0.0947618065580531,0.6484940907357987,0.805699656403692,0.617248595660315,0.141921768707483,0.7598915989159891,0.6710194524495677,0.4034719572682183,0.2800539331351699,0.1993583019682853,0.1228727302336943,0.0811878816908154
0.1073417199422561,0.6611704155547082,0.8064407464798221,0.6032602709549509,0.1465986394557823,0.7664859981933152,0.6875900576368876,0.4108641739793972,0.2855085343057641,0.2050040106126982,0.1297125641234427,0.0908873188839659
0.1116725097958342,0.6722264582539077,0.811426261537425,0.5945588721224805,0.1453231292517006,0.7749774164408311,0.6956952449567724,0.4144410530331934,0.2890632182146907,0.2082125007712717,0.133498900740982,0.0955574182732607
0.0999175087646937,0.6737514296606938,0.8201172269756788,0.5999559422843925,0.1349489795918367,0.7815718157181571,0.6929034582132566,0.4111503243037008,0.2874084515674318,0.2067933608934411,0.1297125641234427,0.0887917614656927
0.0876469375128892,0.6769919939001143,0.830492488041501,0.6045820024231743,0.1232993197278911,0.790063233965673,0.6873198847262249,0.4066673025562762,0.2845585756749303,0.2033380637995928,0.1241755557365035,0.0814273739671895
0.0906372447927407,0.6963400686237132,0.8422151856093781,0.5918052648970151,0.1171768707482993,0.8071364046973803,0.6887608069164266,0.405951926745517,0.2853859589985598,0.2035231690010489,0.1241348424395407,0.0813076278290025
0.0994019385440296,0.7147350362180708,0.8494913427204742,0.5764952087234276,0.1162414965986394,0.8206865401987352,0.6968659942363112,0.4127241510873712,0.290871203995955,0.2088295181094589,0.1315853757837309,0.0905879535384983
0.1067230356774592,0.7243614182234083,0.8515124974735566,0.5671329441568455,0.1179421768707483,0.8265582655826559,0.7009185878962536,0.4187809996184662,0.2955597094965219,0.2130560868760412,0.1364709714192655,0.0981918333133756
0.1005361930294906,0.7171178040411742,0.8504345482719126,0.5746227558101111,0.1160714285714285,0.8224028906955737,0.6933537463976945,0.4172548645555131,0.2945484632120859,0.2120380082680323,0.1344760198680889,0.096515387378757
0.0940400082491235,0.7030118185284024,0.8447079431381797,0.5861879061570657,0.1170068027210884,0.8119241192411923,0.6828170028818444,0.4119133918351774,0.2915760120123801,0.2095082371814648,0.1310968162201775,0.0895102382948149
0.0995050525881625,0.6956728936332442,0.835949605874823,0.5875096376252891,0.1248299319727891,0.8025293586269195,0.6809257925072046,0.4140595192674551,0.2919130941071921,0.2100944036527426,0.132521781613875,0.0892707460184409
0.1153846153846153,0.6933854365230652,0.823957421006535,0.5803502588390791,0.1389455782312925,0.7934959349593496,0.694164265129683,0.4206409767264403,0.2953758465357154,0.2131177886098599,0.1371223841706701,0.0962160220332894
0.1226025984739121,0.687571483034693,0.8151317119180758,0.579799537393986,0.1474489795918367,0.7847335140018067,0.6939841498559078,0.423788630293781,0.2971838323169798,0.2155550070956994,0.1399316016611025,0.1033409172554185
0.1163126417818106,0.6676515440335493,0.80516068180287,0.594669016411499,0.1511904761904761,0.768654019873532,0.6811059077809799,0.4199732926363984,0.2944258879048816,0.2133337446782255,0.1370816708737073,0.0999281523170877
0.1116725097958342,0.6478269157453297,0.7941117024860203,0.608657341116863,0.1562074829931972,0.7518518518518519,0.6687680115273776,0.4149656619610836,0.2907179848619495,0.2111124822607515,0.1347202996498656,0.0950784337205125
0.1184780367085997,0.6447769729317575,0.7875766354510543,0.6067848882035466,0.1630952380952381,0.7459801264679313,0.6693083573487032,0.4174456314383823,0.2920356694143965,0.2122539643363978,0.1370409575767445,0.0971739911387857
0.1336358011961229,0.6504956157072054,0.781647914842013,0.5953298821456108,0.1731292517006802,0.7447154471544715,0.678314121037464,0.4240747806180847,0.2963564489933503,0.2170358487073487,0.1429850989333116,0.1056160938809723
0.1379665910497009,0.6503049942813571,0.7786835545374923,0.593237140654257,0.1767857142857142,0.7426377597109304,0.685428674351585,0.429177794734834,0.2995434069806637,0.2198741284630098,0.1459978829085579,0.1129206083103819
0.1235306248711074,0.6374380480365992,0.7790877854881089,0.6083269082498073,0.1705782312925169,0.7368563685636857,0.6821865994236311,0.4246470812666921,0.2964790243005546,0.2159869192324304,0.1416415601335396,0.1071129206083103
0.1144565889874201,0.6275257338924894,0.7779424644613623,0.6189007599955942,0.1675170068027211,0.7314363143631436,0.6757024495677234,0.4200686760778329,0.2931694910060368,0.2115752452643919,0.1367152512010422,0.1001676445934618
0.1213652299443184,0.6325772016774684,0.7770666307350266,0.6122921026544773,0.1709183673469387,0.7332429990966576,0.6786743515850144,0.4216901945822205,0.2937823675420587,0.2117912013327575,0.1367152512010422,0.099269548557059
0.1293050113425448,0.6464925657643918,0.781647914842013,0.5999559422843925,0.171343537414966,0.7429087624209574,0.6949747838616716,0.4285578023655094,0.2977660650262005,0.2160794718331585,0.1414379936487256,0.1064543168482816
0.1289956692101464,0.6497331300038124,0.7842080441959172,0.5983037779491134,0.1696428571428571,0.7460704607046069,0.7051512968299712,0.4311808470049599,0.2988998866178408,0.2179305238477201,0.1435143717938278,0.108909112681116
0.1135285625902247,0.635817765916889,0.7844775314963283,0.6146051327238682,0.1630102040816326,0.7397470641373081,0.6955151296829971,0.4240747806180847,0.2929243403916281,0.2119454556673043,0.1362674049344515,0.0990899293497784
0.0961022891317797,0.6234273732367517,0.7870376608502324,0.6311267760766603,0.1542517006802721,0.7355916892502259,0.6887608069164266,0.4150133536818009,0.2866423558974045,0.2053742210156105,0.127351192899601,0.0871153155310741
0.0971334295731078,0.6318147159740753,0.7923600350333491,0.6257297059147482,0.151360544217687,0.743089430894309,0.6961455331412104,0.4166348721861885,0.2877761774890449,0.206268896155982,0.1276768992753033,0.0883127769129445
0.1078572901629202,0.6527830728173846,0.800175166745267,0.6078863310937327,0.1507653061224489,0.7582655826558264,0.7034402017291067,0.4204979015642884,0.2920663132411976,0.2106188683902018,0.134842439540754,0.0971739911387857
0.1072386058981233,0.6627906976744186,0.8076534393316714,0.6023791166428021,0.1458333333333333,0.7680216802168021,0.7002881844380404,0.4198779091949638,0.2926485459504183,0.2118837539334855,0.1370002442797817,0.0995689139025266
0.0974427717055063,0.6627906976744186,0.8140537627164319,0.6075558982266769,0.1377551020408163,0.7723577235772358,0.6905619596541788,0.4140118275467379,0.289185793521895,0.2083667551058185,0.1321960752381727,0.0938210992695485
0.0846566302330377,0.6564048799085016,0.8178939567472883,0.6181297499724638,0.1301020408163265,0.7719060523938573,0.681286023054755,0.4062857687905379,0.2842827812337205,0.2026593447275869,0.1244198355182802,0.0831038199018081
0.0856877706743658,0.6530690049561569,0.8148622246176649,0.6194514814406873,0.1323979591836734,0.7682023486901537,0.6754322766570605,0.4030427317817627,0.2812183985536114,0.2003455297093848,0.1212441983551827,0.0789725781343551
0.0972365436172406,0.6621235226839496,0.8137169035909182,0.6081066196717699,0.1379251700680272,0.7718157181571815,0.6838076368876082,0.40747806180847,0.2832408911224834,0.2033689146665021,0.1261297939907173,0.0859178541492036
0.1017735615590843,0.6686999618757147,0.8154011992184867,0.6019385394867275,0.1386904761904761,0.7760614272809394,0.6910122478386168,0.4111026325829836,0.2862746299757914,0.2063614487567101,0.1308118231414379,0.0907675727457789
0.0873375953804908,0.6606938619900876,0.8191740214242403,0.6142746998568124,0.1303571428571428,0.774706413730804,0.6838076368876082,0.4055703929797787,0.2840069867925107,0.2037699759363238,0.1275140460874521,0.0857981080110166
0.077954217364405,0.6603126191383911,0.825035370208179,0.6194514814406873,0.1227891156462584,0.7785004516711834,0.6748018731988473,0.4000858450972911,0.2819844942236387,0.2021965817239464,0.1249083950818337,0.081487247036283
0.0829036914827799,0.675371711780404,0.8325136427945833,0.6081066196717699,0.1200680272108843,0.7906052393857271,0.6796649855907781,0.4054273178176269,0.285447246652162,0.2051891158141544,0.1285318785115218,0.0845407735600526
0.0968240874407094,0.6958635150590926,0.8379033888028027,0.5888313690935125,0.1224489795918367,0.8039747064137308,0.6930835734870318,0.4138687523845861,0.2924646829896118,0.2122231134694885,0.1366338246071166,0.0953777990659801
0.1055887811919983,0.7010102935569956,0.8357474903995149,0.5812314131512281,0.1274659863945578,0.8049683830171634,0.7039805475504323,0.4216901945822205,0.2971838323169798,0.2171592521749861,0.1423336861819069,0.1038797748772602
0.0980614559703031,0.6848074723598931,0.8292124233645489,0.5945588721224805,0.1284863945578231,0.7928635953026197,0.6991174351585014,0.4235978634109119,0.2978579965066038,0.2161411735669772,0.1406237277094699,0.1001077715243683
0.0951742627345844,0.6761341974837971,0.825035370208179,0.6010573851745787,0.1299319727891156,0.7859981933152665,0.6873198847262249,0.4211655856543304,0.2971838323169798,0.2150613932251496,0.1377330836251119,0.0961561489641959
0.1082697463394514,0.6836637438048035,0.8218015226032473,0.58982266769468,0.1373299319727891,0.7874435411020776,0.6876801152737753,0.4214040442579168,0.2985015168694266,0.2165113839698896,0.1391173357218467,0.0994491677643396
0.1280676428129511,0.6933854365230652,0.815603314693795,0.5736314572089437,0.1494047619047619,0.7878048780487804,0.6900216138328531,0.4259347577260588,0.3011981736279226,0.2208305053372,0.1452243302662649,0.1095078433720512
0.1322953186223963,0.6880480365993137,0.8092029913090346,0.574402467232074,0.1551870748299319,0.781029810298103,0.682006484149856,0.4228347958794353,0.2987160236570343,0.2199666810637379,0.1463235892842602,0.1123218776194467
0.1057950092802639,0.6769919939001143,0.8186350468234184,0.5948893049895362,0.138265306122449,0.7821138211382113,0.6630043227665707,0.4062380770698207,0.2916985873195845,0.21552415622879,0.1393616155036234,0.1018440905280804
0.0793978139822643,0.6997712542889819,0.8520514720743784,0.5958806035907038,0.1063775510204081,0.815356820234869,0.6477845821325648,0.3852060282334987,0.2853553151717586,0.2142284198185969,0.1348017262437912,0.0898694767093761
0.0734171994225613,0.7202630575676705,0.8703766085023243,0.5871792047582333,0.0922619047619047,0.8373080397470641,0.6630043227665707,0.3851583365127813,0.291208286090767,0.2236996359597705,0.140990147382135,0.0872949347383546
0.1166219839142091,0.7346549752192146,0.8523209593747894,0.5558982266769468,0.1215136054421768,0.8319783197831978,0.7213616714697406,0.4361407859595574,0.3382772040572427,0.2740173998889369,0.1887061314225226,0.1305232906238773
0.1991132192204578,0.7337018680899732,0.7977497810415685,0.5122810882255755,0.1899659863945577,0.7950316169828365,0.7889949567723343,0.5339565051507059,0.4315570128397635,0.3753933485530944,0.2856037781939581,0.2244042629625194
0.3129511239430811,0.6973884864658787,0.6977026207639965,0.4725189998898556,0.3,0.7107497741644083,0.8137608069164266,0.6349675696299123,0.547666472589097,0.5081754797309804,0.4095350541486849,0.345766974015088
0.4634976283769849,0.6767060617613418,0.584720070066698,0.4040092521202775,0.4334183673469387,0.6252032520325204,0.7753962536023055,0.7409862647844334,0.687892624030889,0.6646202258283458,0.5536194120999918,0.4907196742905041
0.6392039595792947,0.7038696149447197,0.4891194502459071,0.2945258288357749,0.566156462585034,0.5738934056007227,0.7089337175792508,0.8399465852727968,0.8188030521251495,0.8092799407663355,0.6927774611188013,0.6421386660280204
0.8054237987213858,0.7601982462828821,0.4204001886411103,0.1731468223372618,0.6781462585034013,0.5545618789521228,0.6286023054755043,0.8981304845478826,0.8855453068979255,0.8824273462084286,0.7872730233694324,0.7714644952700275
0.9285419674159622,0.7771635531833778,0.3518156706865188,0.0975878400704923,0.7721938775510203,0.5166214995483288,0.5076548991354467,0.9007535291873332,0.8986915085955935,0.8862837045720986,0.8250549629508996,0.8572626032810442
0.9146215714580328,0.7028211971025542,0.3084282153203529,0.1480339244410177,0.7937925170068026,0.4523035230352303,0.4100324207492795,0.8207268218237315,0.8275058989366594,0.7966927870673166,0.7536031267812067,0.8161298048137947
0.7383996700350588,0.5868280594738848,0.3416425250960048,0.3091750192752505,0.7001700680272108,0.4196025293586269,0.2905259365994236,0.5733975581838993,0.583764900560782,0.5736718701795521,0.5575686019053823,0.6356125014968267
0.4951536399257579,0.5768204346168508,0.4934312470524826,0.4448727833461835,0.5040816326530612,0.5166214995483288,0.1630043227665706,0.2648321251430752,0.2635369104893819,0.2817301166162769,0.2942349971500692,0.3792958927074601
0.3070736234275108,0.6437285550895919,0.663612477262009,0.5066637294856261,0.3191326530612244,0.6624209575429088,0.112121757925072,0.087657382678367,0.0627279134618331,0.0803356574319738,0.0950248351111473,0.1714165968147527
0.2492266446690039,0.6680327868852458,0.7185878865458464,0.5235158057054741,0.2605442176870748,0.7107497741644083,0.1576909221902017,0.1097386493704693,0.0647810498575062,0.0659900043191214,0.0626577640257307,0.1188480421506406
0.2103526500309342,0.680327868852459,0.752678030047834,0.5371736975437823,0.2230442176870748,0.7394760614272808,0.3016030259365995,0.2242941625333842,0.1521772438942175,0.1264268525945579,0.0965312270987704,0.122799664710813
0.1656011548772943,0.6846168509340449,0.7850165060971501,0.5585416896133936,0.1841836734693877,0.7631436314363145,0.4205691642651297,0.3078023655093476,0.2135568289768026,0.1670882951810946,0.1166843090953505,0.1175907076996766
0.1617859352443802,0.6900495615707205,0.7913494576568079,0.5575503910122259,0.1785714285714285,0.7700090334236676,0.4514589337175793,0.3276898130484548,0.2270094689424815,0.1757573887826248,0.1210813451673316,0.1167524847323673
0.1624046195091771,0.6970072436141822,0.7957959981135888,0.5531446194514814,0.1761054421768707,0.7762420957542908,0.5064841498559078,0.3588325066768409,0.2475101890724113,0.1880051829456408,0.1276768992753033,0.1156747694886839
0.1517838729634976,0.6844262295081966,0.7938422151856094,0.5660315012666592,0.1728741496598639,0.7690153568202348,0.5870857348703171,0.405618084700496,0.2793184812919437,0.205158264947245,0.136185978340526,0.1122620045503532
0.1328108888430604,0.6550705299275638,0.7854881088728694,0.593237140654257,0.1703231292517007,0.7495031616982836,0.6165345821325648,0.4149179702403663,0.2875923145282383,0.2058986857530697,0.132521781613875,0.1041192671536342
0.1151783872963497,0.6422988943957301,0.7879808664016708,0.6099790725850864,0.1615646258503401,0.7450767841011744,0.629592939481268,0.4074303700877528,0.2848343701161401,0.2007774418461159,0.1233205765002849,0.0929828763022392
0.1100226850897092,0.6423942051086541,0.7914168294819107,0.6127326798105517,0.1572278911564625,0.7474254742547426,0.6476945244956773,0.4082411293399466,0.284803726289339,0.199080644166101,0.1199820861493363,0.0881930307747575
0.1112600536193029,0.6460160121997712,0.7931684969345819,0.6099790725850864,0.1566326530612244,0.750316169828365,0.6688580691642652,0.4165394887447539,0.2890019305610885,0.2010550996483001,0.1228320169367315,0.0917255418512753
0.1069292637657248,0.638772398017537,0.7908778548810886,0.6164775856371847,0.1562925170068027,0.7454381210478771,0.6856087896253603,0.4242178557802365,0.2921888885484019,0.2026284938606775,0.1245419754091686,0.0930427493713327
0.0942462363373891,0.6211399161265726,0.7867008017247187,0.6333296618570327,0.1537414965986394,0.7342366757000903,0.6906520172910664,0.423788630293781,0.2910550669567616,0.199420003702104,0.1194935265857829,0.0836426775236498
0.0857908847184986,0.6077011056042698,0.782725864043657,0.6456658222271175,0.1527210884353741,0.7252032520325203,0.6915525936599424,0.4218332697443724,0.2890325743878896,0.1955327944715247,0.1126944059929972,0.0734642557777511
0.0929057537636626,0.6096073198627525,0.7794246446136225,0.6407093292212799,0.1577380952380952,0.7238482384823848,0.7037103746397695,0.4277947348340328,0.2909018478227561,0.1966125748133522,0.114282224574546,0.0749610825050892
0.106826149721592,0.6185665268776209,0.7766623997844101,0.6281528802731577,0.1652210884353741,0.7262872628726288,0.7161383285302595,0.4366653948874476,0.2954677780161187,0.2001295736410193,0.1191678202100806,0.0810082624835349
0.1077541761187873,0.6190430804422417,0.7763929124839991,0.6273818702500275,0.1658163265306122,0.7262872628726288,0.7232528818443804,0.4403853491033956,0.2978273526798027,0.2014253100512124,0.1213256249491083,0.0843012812836786
0.09538049082285,0.6104651162790697,0.7784140672370814,0.638947020596982,0.1593537414965986,0.7235772357723577,0.7155979827089337,0.4354731018695154,0.2934146416204456,0.1968593817486272,0.1157071899682436,0.0765776553706143
0.0879562796452877,0.6069386199008767,0.7807720811156773,0.6450049564930058,0.1548469387755102,0.723486901535682,0.7009185878962536,0.4269362838611217,0.2882358348910612,0.1915530326402172,0.1093966289390114,0.067476948868399
0.0887811919983501,0.6174227983225314,0.7876440072761571,0.6385064434409076,0.1508503401360544,0.7330623306233063,0.7076729106628243,0.4280808851583366,0.2889099990806852,0.1925711112482261,0.1096409087207881,0.066339360555622
0.0963085172200453,0.6317194052611513,0.7928316378090683,0.6261702830708228,0.1506802721088435,0.743360433604336,0.7272154178674353,0.4366653948874476,0.2938130113688598,0.1973529956191769,0.1155443367803924,0.0753203209196503
0.0924932975871313,0.6241898589401448,0.790002021154753,0.6325586518339024,0.1509353741496598,0.737940379403794,0.7330691642651297,0.4400515070583747,0.2956516409769252,0.1981551181588203,0.1169285888771272,0.077236259130643
0.0826974633945143,0.6078917270301181,0.7848817624469447,0.647207842273378,0.1500850340136054,0.7267389340560072,0.7246938040345822,0.4354731018695154,0.2926179021236172,0.1941445054606034,0.1122465597264066,0.0689139025266435
0.0751701381728191,0.596263820053374,0.781647914842013,0.6580019825972023,0.1490646258503401,0.7190605239385727,0.7154178674351586,0.428510110644792,0.2876536021818405,0.1895168754241994,0.1060174252911,0.0614896419590468
0.0777479892761393,0.596359130766298,0.7799636192144446,0.6564599625509417,0.1511904761904761,0.7179765130984643,0.7203710374639769,0.4279378099961846,0.2869794379922165,0.1876658234096378,0.1048367396791792,0.0600526883008022
0.0847597442771705,0.6041746092260769,0.7809068247658829,0.6483092851635642,0.1534013605442176,0.7223125564588979,0.7322586455331412,0.4342808088515834,0.2905034780743419,0.1899179366940211,0.1083380832179789,0.0668782181774637
0.0802227263353268,0.6024590163934426,0.7826584922185541,0.6517237581231413,0.1504251700680272,0.7226738934056007,0.7375720461095101,0.4344715757344525,0.2897373824043147,0.1894860245572901,0.1069538311212442,0.0671177104538378
0.068673953392452,0.5909264201296225,0.7820521457926295,0.6645004956493006,0.1460884353741496,0.7168021680216803,0.726585014409222,0.4255055322396032,0.2844360003677259,0.1837786141790584,0.0995847243709795,0.0573584001915938
0.058878119199835,0.5866374380480365,0.7854207370477666,0.6722105958806036,0.1398809523809523,0.7170731707317074,0.7174891930835735,0.419257916825639,0.2805748781907884,0.1795211945455667,0.0937627229053008,0.0483774398275655
0.0605279439059599,0.5955013343499809,0.7906083675806777,0.6662628042735984,0.1373299319727891,0.7246612466124661,0.7244236311239194,0.4222148035101106,0.282444151625655,0.1802924662183007,0.0945769888445566,0.049694647347623
0.070839348319241,0.6072245520396492,0.7921579195580407,0.6539266439035135,0.1406462585034013,0.7313459801264679,0.7359510086455332,0.4310854635635254,0.2868568626850121,0.1841179737150614,0.09929973129224,0.0565201772242845
0.0700144359661785,0.6071292413267251,0.7926295223337599,0.6544773653486066,0.1399659863945578,0.731616982836495,0.744956772334294,0.4355207935902327,0.2886954922930775,0.1850434997223422,0.1008875498737887,0.0589749730571189
0.0599092596411631,0.5956919557758291,0.7911473421814996,0.666372948562617,0.136734693877551,0.7252032520325203,0.7381123919308358,0.4322777565814575,0.2859069040541783,0.1817424569630406,0.0971012132562494,0.0532271584241408
0.0573314085378428,0.5948341593595119,0.7922252913831435,0.668355545764952,0.1349489795918367,0.7254742547425475,0.7294668587896254,0.4290347195726822,0.2832102472956823,0.1792743876102918,0.0940477159840403,0.048317566758472
0.0633120230975458,0.605699580632863,0.795998113588897,0.6588831369093512,0.1350340136054421,0.733152664859982,0.7372118155619598,0.4313716138878291,0.2848343701161401,0.1795520454124761,0.095269114892924,0.0505927433840258
0.0745514539080222,0.6148494090735798,0.7950549080374586,0.6475382751404339,0.1403061224489795,0.7368563685636857,0.7547730547550432,0.439097672644029,0.2882664787178622,0.1813105448263096,0.097956192492468,0.0561609388097233
0.0716642606723035,0.6110369805566145,0.7943138179613285,0.6512831809670668,0.139625850340136,0.7345076784101173,0.7619776657060519,0.4427699351392598,0.2894309441363037,0.1810945887579441,0.0975490595228401,0.0566399233624715
0.0563002680965147,0.5973122378955393,0.7946506770868422,0.6673642471637845,0.1329931972789115,0.7282746160794941,0.7565742074927955,0.4398607401755055,0.2873471639138296,0.1772999321280928,0.0924598974024916,0.0494551550712489
0.0494947411837492,0.5926420129622568,0.7957959981135888,0.6737526159268641,0.1295068027210884,0.726829268292683,0.755313400576369,0.4396222815719191,0.2864584929365979,0.1754797309804405,0.0888771272697663,0.0445455634055801
0.05722829449371,0.6011246664125047,0.7967392036650273,0.6647207842273377,0.1321428571428571,0.7314363143631436,0.7708933717579252,0.4493037008775277,0.2905954095547452,0.17791694946628,0.0916456314632358,0.0487965513112202
0.0727985151577644,0.6155165840640487,0.7967392036650273,0.6480889965855271,0.1385204081632653,0.7383017163504968,0.7907961095100866,0.4643742846241893,0.298624092176631,0.1835009563768742,0.0990147382135005,0.0592743384025865
0.082285007217983,0.6181852840259244,0.7924274068584518,0.6414803392444102,0.1451530612244898,0.7366757000903341,0.7959293948126802,0.4702880579931324,0.3026690773143751,0.1850126488554328,0.1020682354857096,0.0639444377918812
0.0793978139822643,0.605604269919939,0.785353365222664,0.6502918823658993,0.148469387755102,0.7259259259259259,0.7781880403458213,0.4631819916062571,0.298287010081819,0.1794903436786573,0.095839101050403,0.0580170039516225
0.0754794803052175,0.5976934807472358,0.7823890049181432,0.6569005397070161,0.1486394557823129,0.7202348690153569,0.7682817002881845,0.4590328119038535,0.2916372996659823,0.1727648546924169,0.0893249735363569,0.04981439348581
0.086100226850897,0.5943576057948913,0.7730916930539647,0.6531556338803832,0.1589285714285714,0.7124661246612466,0.7719740634005764,0.4652804273178176,0.2933533539668434,0.1726414512247794,0.0889992671606546,0.0513710932822416
0.1021860177356155,0.594166984369043,0.7624469446877317,0.6446745236259499,0.1722789115646258,0.7051490514905149,0.789085014409222,0.478634109118657,0.2999417767290779,0.1772999321280928,0.0943734223597426,0.0621482457190755
0.107960404207053,0.586923370186809,0.7535538637741697,0.6457759665161361,0.1802721088435374,0.6958446251129178,0.8014229106628243,0.4876478443342236,0.3044157754420372,0.1793669402110199,0.0972640664441006,0.0674170757993054
0.1006393070736234,0.5698627525733891,0.7462777066630735,0.6596541469324815,0.1818027210884353,0.6828364950316169,0.797370317002882,0.4880293780999619,0.3045383507492415,0.1769297217251805,0.0949841218141845,0.0646030415519099
0.0989894823674984,0.5651925276401066,0.744054436434683,0.6631787641810772,0.1825680272108843,0.6791327913279133,0.7882744956772335,0.4891739793971766,0.3052125149388656,0.176035046584809,0.0947805553293705,0.062088372649982
0.1169313260466075,0.5774876096073198,0.7410227043050595,0.6465469765392663,0.1918367346938775,0.6829268292682926,0.7931376080691643,0.4970431133155285,0.3111574173382772,0.1806009748873943,0.0999104307466818,0.0691533948030176
0.1380697050938337,0.5897826915745329,0.7359024455972512,0.6281528802731577,0.2038265306122448,0.6853658536585366,0.8021433717579252,0.5077737504769172,0.3196764011889805,0.1880051829456408,0.1089487826724208,0.0839420428691174
0.1445658898742008,0.5904498665650019,0.7321296233914977,0.6242978301575063,0.2088435374149659,0.6831074977416441,0.7974603746397695,0.5133536818008394,0.3255293721079889,0.193681742456963,0.1148929240289878,0.0913064303676206
0.1366261084759744,0.5789172703011818,0.7291652630869769,0.6350919704813305,0.2074829931972789,0.6757000903342366,0.7824207492795389,0.5091091186570011,0.3251616461863758,0.1946689701980626,0.1139972314958065,0.0888516345347862
0.1277583006805527,0.5705299275638581,0.7290305194367716,0.6447846679149686,0.2039115646258503,0.6715447154471544,0.7676512968299712,0.5047691720717284,0.3253148653203813,0.1968285308817177,0.1150964905138017,0.0874146808765417
0.1417818106826149,0.5804422417079679,0.7269419928585865,0.6314572089437162,0.2110544217687074,0.6748870822041554,0.7644092219020174,0.5052460892789012,0.3305243158765667,0.2049423088788795,0.1248269684879081,0.0978325948988145
0.1603423386265209,0.6000762485703391,0.7286262884861551,0.6103095054521422,0.2176020408163265,0.6852755194218608,0.7672010086455332,0.5106352537199542,0.3378481904820274,0.2163879805022521,0.1397280351762885,0.1142976888995329
0.1585893998762631,0.6106557377049179,0.737249882099306,0.6050225795792488,0.2113945578231292,0.6961156278229449,0.7606268011527378,0.5067722243418542,0.3391045873808722,0.2225273030172148,0.146934288738702,0.1205843611543527
0.1491029078160445,0.6108463591307662,0.7435828336589638,0.610089216874105,0.2034863945578231,0.7004516711833785,0.7414445244956773,0.4932754673788631,0.3343547942267031,0.2227124082186709,0.1459978829085579,0.1171117231469285
0.1442565477418024,0.6111322912695386,0.7469514249141009,0.612402246943496,0.1994047619047618,0.7028003613369467,0.7217219020172911,0.4805894696680656,0.3281953850396837,0.2212932683408404,0.1438807914664929,0.1115435277212309
0.1479686533305836,0.6312428516965306,0.7587414943070807,0.5988544993942064,0.1935374149659864,0.7203252032520325,0.7190201729106629,0.4750572300648608,0.3281034535592805,0.2257666440426976,0.14982493282306,0.1158543886959645
0.1570426892142709,0.6520205871139915,0.7674998315704372,0.5820024231743584,0.1916666666666666,0.7359530261969286,0.7251440922190202,0.4751526135062953,0.3314436306805994,0.2326155364965756,0.1592704177184268,0.1271105256855466
0.1504433903897711,0.6550705299275638,0.7740348986054032,0.5837647317986562,0.1848639455782313,0.7418247515808492,0.7213616714697406,0.467712705074399,0.3278276591180707,0.2331400012340347,0.1607360964090872,0.1287270985510717
0.1328108888430604,0.6497331300038124,0.781647914842013,0.5962110364577596,0.1727891156462584,0.7444444444444445,0.706592219020173,0.4521175123998474,0.319523182054975,0.2286357746652681,0.1552805146160736,0.1190276613579212
0.1230150546504433,0.6443957300800609,0.7844101596712255,0.6045820024231743,0.1670068027210884,0.7437217705510389,0.6976765129682998,0.4437714612743228,0.3130879784267459,0.2236379342259518,0.149051380180767,0.1103460663393605
0.1229119406063105,0.6489706443004193,0.7877113791012598,0.6019385394867275,0.1648809523809523,0.7481481481481482,0.7067723342939483,0.4436760778328882,0.3125057457175252,0.2230517677546739,0.148481394023288,0.1111244162375763
0.1311610641369354,0.661646969119329,0.7911473421814996,0.5902632448507544,0.166156462585034,0.7563685636856369,0.7221721902017292,0.4499713849675696,0.315478196917231,0.2271549330536188,0.1543441087859294,0.1184888037360794
0.1288925551660136,0.6639344262295082,0.7943138179613285,0.5901531005617359,0.1631802721088435,0.759620596205962,0.7294668587896254,0.4548836322014499,0.3192167437869641,0.2300240636761893,0.1574790326520641,0.1208238534307268
0.1143534749432872,0.654498665650019,0.7971434346156436,0.6033704152439695,0.1553571428571428,0.7570912375790424,0.7256844380403458,0.4513067531476536,0.3166426623356725,0.2275868451903498,0.1526341503134923,0.1139384504849718
0.1117756238399669,0.6519252764010673,0.7970086909654382,0.6062341667584534,0.1544217687074829,0.7557362240289069,0.7185698847262249,0.4473006486074017,0.3135169920019612,0.2257357931757882,0.150191352495725,0.1096275895102383
0.125386677665498,0.6658406404879907,0.7979518965168767,0.5909241105848662,0.159438775510204,0.762962962962963,0.7222622478386167,0.450543685616177,0.3159072104924463,0.2292219411365459,0.1545883885677061,0.1150760387977487
0.1398226438440915,0.6824247045367898,0.800175166745267,0.5736314572089437,0.1639455782312925,0.7722673893405602,0.7311779538904899,0.4547882487600153,0.3199215518033892,0.2331400012340347,0.1595146975002035,0.1238773799544964
0.1328108888430604,0.6740373617994662,0.798895102068315,0.5822227117523956,0.1619047619047618,0.767479674796748,0.7337896253602306,0.4558851583365128,0.3188796616921521,0.2323378786943913,0.1591075645305756,0.1248952221290863
0.119406063105795,0.6541174227983224,0.7935727278851984,0.6009472408855601,0.1597789115646258,0.7544715447154472,0.7217219020172911,0.4478252575352919,0.3131492660803481,0.2277102486579873,0.1527970035013435,0.1164531193868997
0.1147659311198185,0.6546892870758673,0.7970086909654382,0.6030399823769137,0.1556972789115646,0.7570009033423668,0.6998378962536024,0.4371900038153377,0.3083381852725769,0.2232060220892207,0.148277827538474,0.1096874625793318
0.1221901422973809,0.6667937476172321,0.800714141346089,0.5921356977640709,0.1563775510204081,0.7652213188798554,0.6887608069164266,0.4351869515452118,0.3091655685962063,0.224347504164867,0.1501099259017995,0.1123218776194467
0.1354918539905135,0.6760388867708729,0.7985582429428012,0.5796893931049675,0.1631802721088435,0.7682023486901537,0.6935338616714698,0.4426745516978252,0.3143137314987895,0.2298698093416425,0.1568683331976223,0.1223206801580649
0.1345638275933182,0.6698436904308043,0.7947854207370476,0.5836545875096376,0.1652210884353741,0.7626919602529357,0.6960554755043228,0.4452022128958413,0.3158459228388441,0.2319059665576603,0.1597182639850174,0.1256136989582086
0.1234275108269746,0.6530690049561569,0.7902041366300613,0.5992950765502808,0.1635204081632653,0.7516711833785005,0.6861491354466859,0.4409576497520031,0.3118315815279012,0.2284506694638119,0.1552398013191108,0.1193270267033888
0.1221901422973809,0.6422035836828058,0.7833322104695815,0.6062341667584534,0.1673469387755101,0.7420054200542004,0.6830871757925072,0.4385253719954216,0.310054239573438,0.2261060035787006,0.1517791710772738,0.1133995928631301
0.1318828624458651,0.6443957300800609,0.7785488108872869,0.5998457979953739,0.1743197278911564,0.7398373983739837,0.6925432276657061,0.4428653185806944,0.3137008549627678,0.228882581600543,0.1536112694405993,0.1169919770087414
0.1421942668591462,0.6496378192908883,0.7755170787576635,0.5913646877409405,0.1805272108843537,0.7401987353206866,0.7088436599423631,0.4515929034719573,0.3186345110777434,0.2333559573024002,0.1589039980457617,0.1242964914381511
0.1373479067849041,0.6428707586732748,0.7739001549551978,0.5977530565040202,0.1795068027210884,0.7359530261969286,0.7139769452449568,0.4533574971384967,0.3196151135353783,0.2336336151045844,0.1599218304698314,0.1249550951981798
0.1224994844297793,0.6235226839496759,0.769925217274136,0.6169181627932592,0.1759353741496598,0.7241192411924118,0.7145172910662825,0.4488267836703548,0.3163668678944627,0.2308261862158327,0.155769074179627,0.1173512154233025
0.1176531243555372,0.6116088448341592,0.764670214916122,0.6263905716488599,0.1772108843537414,0.7149954832881662,0.7092939481268011,0.4454406714994277,0.3147121012472038,0.2287900289998149,0.1523491572347528,0.1123218776194467
0.1246648793565683,0.6119900876858558,0.7603584181095466,0.6224253772441899,0.1829081632653061,0.7121951219512196,0.7138868876080692,0.4470621900038153,0.3155394845708332,0.2303942740791016,0.154425535379855,0.1163333732487127
0.1321922045782635,0.6189477697293174,0.7602910462844438,0.6143848441458309,0.1860544217687074,0.7154471544715447,0.722442363112392,0.4532621136970622,0.3177458401005117,0.2321219226260258,0.157886165621692,0.1218416956053167
0.131367292225201,0.6228555089592069,0.7636596375395809,0.6126225355215332,0.1835884353741496,0.719602529358627,0.7197406340057638,0.4523559710034338,0.3175926209665063,0.2324304312951194,0.1589854246396873,0.122679918572626
0.1191998350175293,0.6174227983225314,0.7677693188708482,0.6222050886661525,0.1759353741496598,0.7197831978319783,0.7031700288184438,0.441625333842045,0.3119541568351056,0.2272783365212562,0.1525934370165295,0.1146569273140941
0.1113631676634357,0.6135150590926419,0.7701947045745469,0.6285934574292322,0.171173469387755,0.719602529358627,0.69164265129683,0.433040824112934,0.3058253914748874,0.2227124082186709,0.146364302581223,0.107651778230152
0.1170344400907403,0.6230461303850552,0.7731590648790676,0.6201123471747989,0.1716836734693877,0.7260162601626016,0.6932636887608069,0.4321346814193056,0.3047835013636503,0.2225581538841241,0.1462014493933718,0.1081307627829002
0.1246648793565683,0.6370568051849027,0.7780772081115678,0.6078863310937327,0.1716836734693877,0.7359530261969286,0.701278818443804,0.4360454025181228,0.3068059939325223,0.2247177145677794,0.1497842195260972,0.1145970542450005
0.1212621159001856,0.6396301944338543,0.7820521457926295,0.6083269082498073,0.1677721088435373,0.7399277326106595,0.7092939481268011,0.4383346051125525,0.3081849661385714,0.2266613191830691,0.1520234508590505,0.1174110884923961
0.1112600536193029,0.6370568051849027,0.7868355453749241,0.6151558541689612,0.1606292517006802,0.7418247515808492,0.6984870317002883,0.4332792827165204,0.3055802408604787,0.224347504164867,0.1481556876475857,0.1104658124775476
0.1080635182511858,0.6463019443385435,0.7954591389880752,0.6114109483423283,0.1539115646258503,0.7520325203252032,0.6927233429394813,0.4304177794734835,0.3041399810008274,0.2222187943481212,0.1460385962055207,0.1063944437791881
0.1130129923695607,0.6585017155928325,0.8008488849962946,0.6017182509086904,0.1524659863945578,0.761427280939476,0.7009185878962536,0.4359977107974056,0.3075414457757485,0.2256123897081508,0.1497842195260972,0.110286193270267
0.1249742214889668,0.6733701868089973,0.8035437580004042,0.5868487718911773,0.1556972789115646,0.7702800361336947,0.7143371757925072,0.4434376192293018,0.3123218827567187,0.2306410810143765,0.155972640664441,0.11866842294336
0.1246648793565683,0.6700343118566526,0.8013878595971164,0.5888313690935125,0.1569727891156462,0.7672086720867209,0.7158681556195965,0.4431991606257154,0.3121686636227132,0.2295921515394583,0.15654262682192,0.1198060112561369
0.1182718086203341,0.6587876477316049,0.7976150373913629,0.5987443551051878,0.1567176870748299,0.7594399277326106,0.7006484149855908,0.4342331171308661,0.3064689118377103,0.2245326093663232,0.1514127514046087,0.1138187043467848
0.115590843472881,0.6586923370186808,0.7992993330189314,0.6002863751514483,0.1545068027210884,0.7604336043360433,0.6902917867435159,0.4280808851583366,0.3031900223699936,0.2219411365459369,0.1485221073202507,0.110405939408454
0.1243555372241699,0.6713686618375905,0.802533180623863,0.5882806476484194,0.1561224489795918,0.768654019873532,0.6850684438040346,0.4277947348340328,0.3038641865596176,0.2232985746899488,0.1512498982167575,0.113160100586756
0.1360074242111775,0.6814715974075485,0.8020615778481438,0.5762749201453904,0.1612244897959183,0.7730803974706414,0.6824567723342939,0.4300839374284625,0.306376980357307,0.2274017399888937,0.1562169204462177,0.1211830918452879
0.1349762837698494,0.6715592832634387,0.7957286262884861,0.5824430003304328,0.1647959183673469,0.7641373080397472,0.6755223342939481,0.4299408622663105,0.3064382680109092,0.227432590855803,0.15654262682192,0.1229194108490001
0.1229119406063105,0.6519252764010673,0.7896651620292393,0.6002863751514483,0.1636054421768707,0.7508581752484191,0.6620136887608069,0.4226917207172835,0.3010143106671161,0.2219411365459369,0.150191352495725,0.1143575619686265
0.1174468962672716,0.6397255051467784,0.7847470187967391,0.6101993611631237,0.1645408163265306,0.7417344173441734,0.6551693083573488,0.4182563906905761,0.2984402292158244,0.2191028567902758,0.1469750020356648,0.1088492396120225
0.1249742214889668,0.6441097979412885,0.7828606076938623,0.6037008481110254,0.1687925170068027,0.7425474254742548,0.6657961095100865,0.4243609309423883,0.3026077896607729,0.2227432590855803,0.1505170588714273,0.1133397197940366
0.1317797484017323,0.6547845977887914,0.7859597116485885,0.5938980063883688,0.1696428571428571,0.7496838301716351,0.6850684438040346,0.4315623807706982,0.306009254435694,0.2266921700499784,0.1556876475857014,0.1210034726380074
0.1288925551660136,0.652401829965688,0.7861618271238967,0.5968719021918713,0.16828231292517,0.7486901535682023,0.6876801152737753,0.4317531476535673,0.306039898262495,0.2269389769852533,0.1560947805553293,0.1217219494671296
0.1169313260466075,0.6384864658787647,0.7841406723708145,0.6111906597642912,0.1647108843537414,0.7407407407407407,0.6747118155619597,0.4248855398702785,0.3016578310299391,0.2225890047510335,0.1497435062291344,0.1135792120704107
0.1113631676634357,0.6278116660312618,0.7803004783399581,0.6204427800418548,0.1647959183673469,0.733152664859982,0.6738112391930836,0.4235978634109119,0.3008917353599117,0.2205836984019251,0.1460793095024835,0.1080110166447132
0.1200247473705918,0.6320053373999236,0.7775382335107457,0.6133935455446635,0.1700680272108843,0.7332429990966576,0.6925432276657061,0.4304654711942007,0.3035577482916067,0.2222187943481212,0.148847813695953,0.1113040354448569
0.127552072592287,0.6421082729698817,0.7797615037391362,0.6034805595329882,0.1718537414965986,0.7394760614272808,0.7060518731988473,0.4375238458603587,0.3073882266417431,0.2254272845066947,0.1532041364709714,0.1179499461142378
0.1205403175912559,0.6425848265345023,0.7846796469716364,0.6068950324925653,0.1658163265306122,0.7429990966576332,0.7129863112391932,0.4389545974818771,0.3083688290993779,0.2259826001110631,0.1530412832831202,0.1181894383906119
0.1065168075891936,0.6265726267632481,0.7825237485683487,0.6236369644233946,0.1613945578231292,0.7340560072267389,0.7047010086455332,0.4331362075543685,0.3038641865596176,0.2212932683408404,0.1467714355508509,0.109028858819303
0.1016704475149515,0.6169462447579107,0.7788856700128005,0.6318977860997907,0.161734693877551,0.7270099367660343,0.7002881844380404,0.4282716520412056,0.2995127631538627,0.2164496822360708,0.140990147382135,0.1017243443898934
0.1123943081047638,0.627144491040793,0.7790204136630061,0.6202224914638176,0.1659863945578231,0.7319783197831977,0.7071325648414986,0.430513162914918,0.3004933656114976,0.2173443573764423,0.1420486931031674,0.1054364746736917
0.1249742214889668,0.6368661837590543,0.7777403489860539,0.6078863310937327,0.1720238095238095,0.7356820234869016,0.7191102305475505,0.4373807706982068,0.3034964606380045,0.2212932683408404,0.1474228483022555,0.1136390851395042
0.1221901422973809,0.6280975981700342,0.7733611803543757,0.6143848441458309,0.1736394557823129,0.728635953026197,0.7187500000000001,0.4342808088515834,0.3014433242423314,0.2205219966681064,0.1468528621447764,0.1134594659322236
0.1034233862652093,0.608558902020587,0.7718116283770128,0.6357528362154421,0.166921768707483,0.7182475158084914,0.7048811239193085,0.4239317054559329,0.2953452027089143,0.2142901215524156,0.1391580490188095,0.1034606633936055
0.0911528150134048,0.5977887914601601,0.7722158593276292,0.6485295737416014,0.1615646258503401,0.7134598012646792,0.6945244956772335,0.4151087371232353,0.290871203995955,0.2087061146418214,0.1326439215047634,0.0946593222368578
0.0980614559703031,0.6089401448722835,0.7755844505827663,0.638396299151889,0.1622448979591836,0.721047877145438,0.7033501440922191,0.417731781762686,0.2914227928783747,0.2099710001851052,0.13463887305594,0.0975931026224404
0.1067230356774592,0.6284788410217308,0.7838038132453007,0.6225355215332085,0.1607142857142857,0.7357723577235772,0.7222622478386167,0.4262685997710798,0.2973676952777863,0.2161720244338866,0.1419265532122791,0.106154951502814
0.1042482986182718,0.632958444529165,0.7885872128275955,0.6212137900649851,0.1566326530612244,0.7411020776874435,0.7289265129682998,0.4317531476535673,0.3011062421475194,0.218948602455729,0.1440436446543441,0.109028858819303
0.0911528150134048,0.6226648875333587,0.7897999056794449,0.634100671880163,0.1505102040816326,0.737037037037037,0.7168587896253603,0.4264116749332316,0.2968467502221678,0.2153390510273339,0.1399723149580652,0.1031014249790444
0.0840379459682408,0.6181852840259244,0.7912820858317051,0.6405991849322612,0.1465986394557823,0.735862691960253,0.711635446685879,0.4214040442579168,0.2938742990224619,0.2120380082680323,0.1358602719648237,0.0968147527242246
0.0959991750876469,0.632958444529165,0.793909587010712,0.6256195616257297,0.1499149659863945,0.7446251129177959,0.7172190201729107,0.4247424647081267,0.2954064903625165,0.2142592706855063,0.1385473495643677,0.1001077715243683
0.1099195710455764,0.6505909264201295,0.797345550090952,0.6079964753827514,0.1534013605442176,0.7552845528455285,0.7187500000000001,0.4298931705455933,0.298961174271443,0.218516690318998,0.1443286377330836,0.1088492396120225
0.1152815013404825,0.6570720548989706,0.7983561274674931,0.6013878180416344,0.1550170068027211,0.7590785907859079,0.700828530259366,0.4263639832125143,0.2987160236570343,0.21938051459246,0.1461200227994462,0.1115435277212309
0.1080635182511858,0.6529736942432328,0.800175166745267,0.6076660425156954,0.1509353741496598,0.7583559168925023,0.6742615273775217,0.4148225867989317,0.2928630527380259,0.2149688406244216,0.1411122872730233,0.1045383786372889
0.1055887811919983,0.6537361799466259,0.8023984369736576,0.6084370525388257,0.148469387755102,0.7602529358626919,0.6530979827089337,0.4063334605112552,0.2896148070971103,0.2126241747393102,0.1387916293461444,0.100766375284397
0.1160032996494122,0.6574532977506671,0.7980866401670821,0.6007269523075228,0.1554421768707483,0.7590785907859079,0.6539985590778099,0.4098149561236169,0.2930469156988325,0.2155550070956994,0.1431886654181255,0.1083702550592743
0.1295112394308104,0.6568814334731222,0.7889240719531092,0.5938980063883688,0.1668367346938775,0.7526648599819331,0.661563400576369,0.417731781762686,0.2971838323169798,0.2195964706608256,0.1491328067746926,0.11866842294336
0.1279645287688183,0.6470644300419366,0.7829279795189651,0.600396519440467,0.1699829931972789,0.7439927732610659,0.6612932276657061,0.4183040824112934,0.297275763797383,0.2196890232615536,0.149051380180767,0.1188480421506406
0.1140441328108888,0.6262866946244757,0.7774034898605403,0.6198920585967618,0.1676870748299319,0.7304426377597109,0.6559798270893372,0.4143456695917589,0.2940888058100696,0.2154933053618807,0.1430665255272371,0.1094479703029577
0.1070323778098577,0.6161837590545177,0.7748433605066362,0.6293644674523625,0.1664115646258503,0.7239385727190606,0.6530079250720462,0.4108641739793972,0.291177642263966,0.2127167273400383,0.1391173357218467,0.1033409172554185
0.1175500103114044,0.624380480365993,0.7737654113049921,0.6191210485736315,0.1714285714285714,0.7271002710027101,0.6672370317002883,0.4164441053033193,0.2951306959213066,0.2159252174986117,0.1431886654181255,0.1077116512992456
0.1245617653124355,0.6345787266488753,0.7763929124839991,0.6094283511399934,0.172704081632653,0.7336946702800362,0.6814661383285303,0.4246947729874094,0.2999111329022769,0.2206145492688345,0.1483185408354368,0.1150760387977487
0.1117756238399669,0.6307662981319099,0.7820521457926295,0.6184601828395196,0.163860544217687,0.7356820234869016,0.6842579250720461,0.4224532621136971,0.298287010081819,0.220151786265194,0.1468121488478136,0.1129804813794755
0.0862033408950299,0.6279069767441859,0.7967392036650273,0.6337702390131071,0.144047619047619,0.7441734417344172,0.676693083573487,0.4092426554750095,0.2917292311463855,0.2150613932251496,0.1392801889096979,0.0998084061789007
0.064858733759538,0.6548799085017155,0.8297513979653709,0.6295847560303998,0.1144557823129251,0.7790424570912375,0.668227665706052,0.3894505913773368,0.2828731652008703,0.2102795088541988,0.1318296555655077,0.0851395042509879
0.0601154877294287,0.6921463972550514,0.8591928855352692,0.610639938319198,0.0938775510204081,0.8164408310749774,0.6816462536023056,0.3826306753147653,0.282107069530843,0.2134571481458629,0.1350052927286051,0.0837624236618369
0.0805320684677253,0.708444529165078,0.857373846257495,0.5902632448507544,0.1034863945578231,0.8229448961156278,0.725864553314121,0.4121041587180465,0.3112493488186805,0.2451409884617758,0.164603859620552,0.1098072087175188
0.1323984326665291,0.7113038505528021,0.8255069729838981,0.5608547196827844,0.1448979591836734,0.8029810298102982,0.7822406340057637,0.4848340328119039,0.3816382189807863,0.3222064540013574,0.2372363814021659,0.175128727098551
0.2268508970921839,0.6910979794128859,0.7495115542680051,0.522083929948232,0.2318877551020408,0.7424570912375791,0.8105187319884726,0.5765929034719572,0.4877271473661631,0.4420003702104029,0.3469994300138425,0.2773919291102861
0.3760569189523613,0.6843309187952725,0.6472411237620427,0.4463046591034255,0.3579081632653061,0.6707317073170732,0.7862031700288185,0.6846146508966043,0.6269420525235192,0.5980440550379466,0.4894959693836006,0.4182133876182493
0.5609404000824911,0.7176896683187189,0.5500235801387859,0.3283401255644895,0.4954931972789115,0.6213188798554652,0.7335194524495677,0.80231781762686,0.7809272821990011,0.7651014993521319,0.6463235892842603,0.582864327625434
0.7352031346669416,0.7737323675181089,0.4757798288755642,0.2028857803722877,0.6142006802721088,0.5981029810298103,0.6543587896253603,0.8858737123235406,0.8826034995250208,0.8753007959523663,0.766020682354857,0.7270985510717278
0.8829655599092597,0.7958444529165078,0.394866266927171,0.1111355876197818,0.7261904761904762,0.5543812104787714,0.5171109510086456,0.9149179702403664,0.9219195293108204,0.912445239711236,0.8324240697011643,0.8367860136510596
0.915034027634564,0.734369043080442,0.3304588021289496,0.129639828174909,0.7801020408163264,0.4820234869015357,0.4052593659942364,0.8684662342617322,0.8895596482088685,0.8618498179798854,0.8031512091849199,0.8428331936295054
0.7984120437203546,0.6172321768966831,0.3238563632688809,0.259610089216874,0.7361394557823128,0.4220415537488708,0.3046649855907781,0.6732640213658909,0.7018968528789877,0.6843647806503363,0.6498656461200228,0.7113519339001316
0.5933182099401938,0.5746282882195958,0.4276763457522063,0.3937658332415464,0.5860544217687075,0.4715447154471545,0.1870497118155619,0.3750476917207173,0.3912297367695278,0.4113654593694083,0.4138099503297777,0.4910190396359717
0.369663848216127,0.6277163553183377,0.6113993128073839,0.4825421301905495,0.377891156462585,0.6197831978319783,0.1314841498559078,0.146032048836322,0.1274476756657371,0.1528660455358796,0.1724615259343701,0.2514668901927913
0.2766549804083316,0.6467784979031642,0.6856430640706057,0.5210926313470646,0.2926870748299319,0.6786811201445347,0.1657961095100864,0.1226154139641358,0.06910182943646,0.0769112112050348,0.0874521618760687,0.1535744222248832
