Lead I,Lead II,Lead III,aVR,aVL,aVF,V1,V2,V3,V4,V5,V6
0.0785729016292019,0.445482272207396,0.672775045475982,0.7432536622976098,0.2191326530612244,0.5746160794941283,0.8536563400576369,0.5165967188096147,0.3556828976802623,0.2444005676559511,0.1857747740412018,0.1279487486528559
0.0733140853784285,0.4421463972550514,0.6738529946776258,0.7479898667254102,0.2162414965986394,0.573803071364047,0.8466318443804035,0.5122090805036246,0.3518524193301259,0.2401431480224594,0.1805227587330021,0.121302837983475
0.083419261703444,0.446149447197865,0.6700801724718722,0.7402797664941072,0.2227891156462584,0.573170731707317,0.8551873198847264,0.5169782525753529,0.3536604051113903,0.2412846300981058,0.1826398501750671,0.1244761106454316
0.1012579913384203,0.4478650400304994,0.6596375395809472,0.7298160590373389,0.236734693877551,0.5669376693766938,0.8697766570605188,0.5278042731781762,0.3584408420923605,0.2447090763250448,0.1874847325136389,0.1326188480421506
0.1013611053825531,0.4344262295081966,0.6500707404163578,0.7375261592686418,0.2428571428571428,0.5541102077687443,0.8720280979827091,0.5314288439526899,0.358931143321178,0.2432899364472142,0.1868333197622343,0.1335169440785534
0.0886780779542173,0.4158406404879907,0.6452199690089604,0.754928956933583,0.2407312925170067,0.5420957542908762,0.8593299711815563,0.5265165967188097,0.3544571446082187,0.2363793422595175,0.1796677794967836,0.1251945874745539
0.0851722004537017,0.4039268013724741,0.6390891329246109,0.763740500055072,0.2431122448979591,0.5323396567299006,0.8521253602305476,0.5254673788630294,0.3511476113137009,0.2311655457518356,0.1737236381402166,0.1181295653215183
0.0988863683233656,0.405261151353412,0.6310718857373846,0.7556999669567133,0.2538265306122449,0.5275519421860885,0.8604106628242075,0.5322396032048836,0.3533539668433794,0.2314432035540199,0.1744157641885839,0.1217219494671296
0.11775623839967,0.4074532977506671,0.6202923937209459,0.744355105187796,0.2683673469387754,0.5214092140921409,0.8722982708933719,0.5403948874475392,0.3576747464223332,0.2321836243598445,0.177102841788128,0.1286672254819781
0.1156939575170138,0.3979222264582538,0.6149026477127265,0.7509637625289128,0.2709183673469387,0.5132791327913279,0.8723883285302594,0.5410148798168638,0.3558054729874667,0.2290368359350898,0.1740493445159188,0.1262124296491438
0.0999175087646937,0.3823865802516202,0.6142289294616992,0.7682564159048354,0.2648809523809524,0.505420054200542,0.8544668587896254,0.5315242273941244,0.347163913829559,0.2206454001357438,0.1637895936812963,0.11441743503772
0.0900185605279439,0.370758673274876,0.6124772620090279,0.7802621434078643,0.2619047619047619,0.4988256549232159,0.8447406340057637,0.5256581457458985,0.3423221891949867,0.2142592706855063,0.1567054800097711,0.1065141899173751
0.0996081666322953,0.379336637438048,0.6123425183588224,0.7702390131071702,0.2659863945578231,0.5028003613369467,0.8514048991354468,0.5333842045020984,0.3462139551987252,0.2166039365706177,0.1590261379366501,0.1111842893066698
0.1124974221488966,0.3907739229889438,0.6119382874082058,0.7566912655578807,0.2715136054421768,0.5079494128274615,0.8632024495677234,0.5459748187714613,0.3540281310330034,0.2227432590855803,0.1673316505170588,0.1216620763980361
0.1134254485460919,0.3861990087685855,0.6080980933773495,0.7588941513382531,0.2743197278911564,0.5031616982836495,0.8626621037463978,0.5513162914917971,0.3579505408635431,0.2255198371074227,0.1708737073528214,0.1272901448928272
0.1052794390595999,0.3774304231795653,0.607222259651014,0.7683665601938539,0.2715136054421768,0.4983739837398373,0.8514048991354468,0.5497424647081267,0.3588085680139736,0.2249645215030542,0.1692044621773471,0.1244162375763381
0.1067230356774592,0.3822912695386961,0.6097150171798154,0.7647317986562396,0.2704931972789116,0.5024390243902439,0.844920749279539,0.5518885921404044,0.3636196488217449,0.2289442833343617,0.1726650924191841,0.125314333612741
0.1261084759744277,0.4111704155547083,0.6174627770666307,0.7377464478466791,0.2736394557823129,0.5212285456187895,0.8516750720461096,0.5649561236169401,0.3758465357153802,0.2419633491701117,0.187281166028825,0.1408214585079631
0.1487935656836461,0.4418604651162789,0.6243347032271104,0.7078973455226346,0.2786564625850339,0.5403794037940379,0.8559978386167147,0.5756867607783289,0.3884105047038274,0.257234528290245,0.2050728768015634,0.161357921207041
0.1572489173025366,0.4534883720930232,0.6270969480563229,0.6965524837537174,0.2804421768707483,0.5477868112014453,0.848342939481268,0.5766882869133918,0.3949069959856587,0.2682174369099772,0.2176125722661021,0.1753083463058316
0.1542586100226851,0.4583492184521539,0.6324193222394394,0.6953408965745125,0.2758503401360544,0.5536585365853658,0.8297010086455333,0.566959175887066,0.3935280237796096,0.2730301721478373,0.2213581955866786,0.1771045383786372
0.1549804083316147,0.4695005718642774,0.6398302230007411,0.6886220949443771,0.2714285714285714,0.5639566395663957,0.8199747838616716,0.5593285005723007,0.3922716268807649,0.276855679644598,0.2244931194528132,0.1778230152077595
0.1636419880387709,0.4886580251620281,0.6477127265377618,0.6728714616147152,0.2699829931972788,0.578319783197832,0.8261887608069165,0.5575639069057612,0.39466184537125,0.2834886160301105,0.2334093314876638,0.1868638486408813
0.1739533924520519,0.5078154784597788,0.6545172808731389,0.6563498182619231,0.2699829931972788,0.5918699186991869,0.8324027377521613,0.5568962228157192,0.3963166120185089,0.290214105016351,0.2429362429769562,0.1981199856304634
0.1701381728191379,0.5124857033930613,0.6603112578319748,0.6555788082387928,0.2647959183673469,0.5980126467931346,0.8251080691642652,0.5485024799694773,0.3939570373548249,0.2918492009625471,0.2453790407947235,0.199796431565082
0.149927820169107,0.5031452535264963,0.666981068517146,0.6718801630135477,0.2522108843537414,0.5981029810298103,0.810428674351585,0.5344334223578787,0.3864492997885576,0.2874683778614179,0.239719892516896,0.1905161058555861
0.1395133017116931,0.4982844071673655,0.6702822879471805,0.6801409846899438,0.2458333333333333,0.5979223125564589,0.8021433717579252,0.5226058756199924,0.3792173566635001,0.2830875547602888,0.2346714436935102,0.1811759070769967
0.1470406269333883,0.50714830346931,0.6716297244492352,0.6711091529904174,0.2480442176870748,0.6030713640469738,0.8061059077809799,0.5194105303319344,0.3774400147090369,0.2839513790337509,0.2356078495236544,0.1827924799425218
0.1557022066405444,0.5173465497521921,0.6731792764265984,0.6605353012446304,0.2506802721088435,0.6089430894308943,0.8091678674351586,0.5193628386112171,0.3773174394018325,0.286018387116678,0.2393534728442309,0.1885402945754999
0.1517838729634976,0.5109607319862751,0.6712254934986188,0.666372948562617,0.2502551020408163,0.6046070460704607,0.7996217579250721,0.5138305990080122,0.3730273036496798,0.2834577651632011,0.2380506473414217,0.187402706262723
0.1380697050938337,0.4935188715211589,0.6677895304183791,0.6836656019385394,0.2468537414965986,0.5940379403794038,0.7777377521613833,0.499332315909958,0.3641405938773634,0.2751897328314926,0.2295415682761989,0.1771644114477308
0.1326046607547948,0.4858940144872283,0.6661052347908105,0.6910452693027866,0.2455782312925169,0.5892502258355917,0.7642291066282422,0.4909862647844334,0.357919897036742,0.2700067871907201,0.2240045598892598,0.1696802778110406
0.1397195297999587,0.4888486465878764,0.6634103617867008,0.6855380548518559,0.2502551020408163,0.5888888888888889,0.7713436599423631,0.4926077832888211,0.3592988692427911,0.2713950762016413,0.2264066444100643,0.1735720273021194
0.149927820169107,0.4890392680137247,0.6569426665768375,0.6799206961119065,0.2585884353741496,0.584643179765131,0.7869236311239193,0.4998569248378481,0.3626696901909111,0.27531313629913,0.2310479602638221,0.1813555262842773
0.1426067230356774,0.4724552039649256,0.6499359967661523,0.6934684436611961,0.2599489795918367,0.5720867208672087,0.7936779538904899,0.5000476917207173,0.360279471700426,0.2734620842845684,0.2281573161794642,0.1773440306550113
0.1260053619302949,0.4459588257720167,0.6421208650542343,0.7177001872452913,0.2579931972789115,0.5542908762420957,0.7844920749279539,0.4911293399465853,0.3531088162289707,0.266057876226322,0.2186711179871346,0.1651897976290264
0.1188904928851309,0.4355699580632863,0.6394933638752274,0.7273928846789294,0.2568027210884354,0.5476061427280939,0.7749459654178674,0.4829740557039298,0.3475316397511722,0.2601036589128155,0.2132155361941209,0.1577655370614297
0.125386677665498,0.4421463972550514,0.6398302230007411,0.7202335058927194,0.2591836734693877,0.5509485094850949,0.7751260806916427,0.4816863792445632,0.3468268317347471,0.2598568519775406,0.2135005292728605,0.1595018560651419
0.1337389152402557,0.4510102935569957,0.640638684901974,0.7106509527481,0.2621598639455782,0.5556458897922313,0.7753061959654179,0.4840709652804273,0.3486348175160114,0.2627568334670204,0.2174904323752137,0.1655490360435876
0.1272427304598886,0.4486275257338925,0.6431988142558782,0.7154973014649191,0.2578231292517006,0.5562782294489612,0.7678314121037465,0.4828786722624952,0.3479300094995863,0.2632504473375702,0.2181011318296555,0.1666866243563645
0.1131161064136935,0.4397636294319481,0.6461631745603987,0.7281638947020597,0.2501700680272108,0.5540198735320686,0.7535122478386167,0.4747233880198398,0.3435785860938314,0.259548343308447,0.2125641234427163,0.1575859178541492
0.107960404207053,0.4408120472741135,0.6502728558916661,0.7302566361934133,0.2454081632653061,0.5573622402890696,0.746307636887608,0.4716711178939337,0.3429657095578096,0.2590238785709878,0.2106505984854653,0.1536342952939767
0.1207465456795215,0.4605413648494089,0.6558647173751937,0.7119726842163233,0.2471938775510204,0.5704607046070461,0.7590958213256486,0.4799694772987409,0.3497379952808507,0.2648238415499476,0.2176125722661021,0.1618967788288827
0.1322953186223963,0.4762676324818908,0.659435424105639,0.6967727723317546,0.2496598639455782,0.5803071364046973,0.7765670028818444,0.4906047310186952,0.3574602396347256,0.2724131548096501,0.2259995114404364,0.1735720273021194
0.1304392658280057,0.4740754860846358,0.6590985649801253,0.6989756581121268,0.2491496598639455,0.5790424570912376,0.7804394812680115,0.4947539107210988,0.3607084852756412,0.2754365397667674,0.2290530087126455,0.1769249191713567
0.1247679934007011,0.4681662218833396,0.6586269622044061,0.7054741711642251,0.2471088435374149,0.575880758807588,0.7727845821325648,0.4919877909194964,0.3586553488799681,0.2741099524896649,0.2255923784708085,0.1714165968147527
0.1257991338420293,0.470644300419367,0.6597049114060499,0.7034915739618901,0.2468537414965986,0.5777777777777777,0.7680115273775218,0.4913201068294544,0.3585327735727638,0.2735854877522058,0.2240859864831854,0.1685426894982636
0.1360074242111775,0.478459778879146,0.6585595903793033,0.6934684436611961,0.2517857142857143,0.5807588075880759,0.7804394812680115,0.4999046165585654,0.363006772285723,0.2775343987166039,0.2284015959612409,0.173631900371213
0.1404413281088884,0.487133053755242,0.661793437984235,0.6861989205859675,0.2516156462585034,0.5869918699186992,0.7943083573487032,0.5069629912247234,0.3674807709986823,0.2816684148824582,0.2342235974269196,0.1813555262842773
0.1374510208290369,0.4882767823103316,0.6645556828134473,0.6870800748981165,0.2485544217687074,0.5893405600722674,0.7934978386167147,0.5059137733689432,0.3670824012502682,0.2816992657493676,0.2348342968813614,0.1802778110405939
0.128686327077748,0.4776972931757529,0.6627366435356734,0.6978742152219407,0.2460884353741496,0.583107497741644,0.778728386167147,0.4958985120183136,0.3617810192136794,0.2770407848460542,0.2281166028825014,0.1719554544365944
0.1269333883274901,0.4730270682424703,0.6606481169574883,0.7015089767595549,0.2467687074829931,0.5795844625112918,0.7722442363112392,0.49174933231591,0.359635951337603,0.2747269698278522,0.2243709795619249,0.1677643396000478
0.1338420292843885,0.4775066717499046,0.6593006804554334,0.6952307522854939,0.2504251700680271,0.5807588075880759,0.7835014409221902,0.4961846623426173,0.3610455673704532,0.2767939779107793,0.2269359172705805,0.170997485331098
0.1376572489173025,0.4779832253145252,0.657077410227043,0.692917722216103,0.2534013605442176,0.5794941282746161,0.7920569164265131,0.5000953834414346,0.3630680599393252,0.2791077929289813,0.2304372608093803,0.1775236498622919
0.1299236956073417,0.4686427754479602,0.6555952300747827,0.7025002753607226,0.2511054421768707,0.5740740740740741,0.7844020172910664,0.4958985120183136,0.3612294303312598,0.2762078114395015,0.227994462991613,0.1744102502694287
0.1201278614147246,0.4520587113991612,0.6502728558916661,0.7172596100892168,0.2505102040816326,0.5626016260162602,0.769092219020173,0.4874093857306371,0.3551006649710416,0.2707163571296354,0.2206253562413484,0.1648305592144653
0.1173437822231387,0.4455775829203201,0.6475106110624537,0.7225465359621104,0.2510204081632653,0.5577235772357724,0.7656700288184438,0.4829740557039298,0.3520669261177336,0.2671376565681496,0.2177347121569904,0.161357921207041
0.1245617653124355,0.4543461685093403,0.648992791214714,0.7136248485516026,0.2530612244897959,0.5628726287262872,0.7738652737752162,0.4860263258298359,0.3543958569546165,0.2692972172518048,0.2216024753684553,0.1672853550472997
0.1304392658280057,0.4621616469691192,0.6506770868422825,0.7059147483202995,0.2545068027210884,0.5676603432700993,0.7844020172910664,0.4921785578023655,0.3585634173995649,0.2735237860183871,0.2272616236462828,0.1750688540294575
0.1254897917096308,0.4560617613419748,0.6495991376406386,0.712082828505342,0.2530612244897959,0.564137308039747,0.7815201729106629,0.490413964135826,0.3562957742162841,0.2722897513420127,0.2260402247373992,0.1731529158184648
0.1151783872963497,0.443290125810141,0.6473084955871454,0.7249697103205198,0.2503401360544217,0.5564588979223125,0.7681015850144093,0.4814002289202594,0.3496767076272485,0.2664280866292343,0.2189968243628369,0.1635133516944078
0.1138379047226232,0.4381433473122378,0.6445462507579329,0.7287146161471528,0.2515306122448979,0.5522131887985546,0.7594560518731989,0.4753433803891644,0.3453865718750958,0.2624174739310175,0.215129061151372,0.1580649024068973
0.1273458445040214,0.4458635150590925,0.6412450313278986,0.7170393215111797,0.2591836734693877,0.5536585365853658,0.7613472622478387,0.476106447920641,0.3459994484111175,0.2638057629419387,0.2177347121569904,0.1639324631780624
0.1352856259022478,0.4568242470453678,0.6436704170315973,0.706355325476374,0.2608843537414965,0.560523938572719,0.7613472622478387,0.4772510492178557,0.3472252014831612,0.2655334114888628,0.2216024753684553,0.1689019279128248
0.1266240461950917,0.4528211971025542,0.6465674055110152,0.7134045599735653,0.2554421768707482,0.560523938572719,0.7523414985590778,0.4723864937046929,0.3447124076854718,0.2634664034059357,0.2201775099747577,0.1672853550472997
0.1145597030315529,0.4386199008768585,0.6444115071077275,0.7279436061240225,0.2518707482993197,0.552393857271906,0.7389229106628243,0.4622758489126287,0.3382772040572427,0.257666440426976,0.2125641234427163,0.1581846485450844
0.1110538255310373,0.4354746473503621,0.6445462507579329,0.7316885119506553,0.2503401360544217,0.5509485094850949,0.7319884726224785,0.4575543685616177,0.3349983145895259,0.2544579502684025,0.2088185001221398,0.153095437672135
0.1242524231800371,0.447674418604651,0.6445462507579329,0.7175900429562727,0.25578231292517,0.5567299006323396,0.7453170028818444,0.4636112170927127,0.3387675052860601,0.2581292034306164,0.2133376760850093,0.1589031253742066
0.1343575995050525,0.4603507434235607,0.6468368928114263,0.7048133054301134,0.2585034013605442,0.5642276422764227,0.7644092219020174,0.4741987790919496,0.3447124076854718,0.2638983155426668,0.2205439296474228,0.1674649742545802
0.1301299236956073,0.4645444147922226,0.6525634979451593,0.7047031611410948,0.2531462585034013,0.5700993676603433,0.7708933717579252,0.4779187333078977,0.3478074341923819,0.2663972357623249,0.2229867274651901,0.1693210393964794
0.1144565889874201,0.4594929470072435,0.659165936805228,0.7160480229100121,0.2425170068027211,0.5721770551038844,0.7646793948126802,0.4738649370469286,0.3450188459534827,0.2636206577404825,0.2182639850175066,0.162615255658005
0.1126005361930295,0.4629241326725123,0.6628713871858789,0.714946580019826,0.2394557823129251,0.5762420957542909,0.7623378962536024,0.4724818771461274,0.3437318052278368,0.2617696057259209,0.2150069212604836,0.1587235061669261
0.1250773355330996,0.4797941288600838,0.6665768375665296,0.698645225245071,0.2421768707482993,0.5867208672086721,0.7723342939481269,0.4775848912628768,0.3479912971531885,0.2654408588881348,0.2191189642537252,0.1653095437672135
0.1354918539905135,0.493614182234083,0.669608569696153,0.6849873334067628,0.2446428571428571,0.5953026196928636,0.7808897694524496,0.4842617321632964,0.3528943094413631,0.269914234589992,0.2244931194528132,0.1730930427493713
0.1271396164157558,0.4947579107891727,0.6758067776056054,0.6888423835224142,0.2372448979591836,0.6,0.779178674351585,0.4834032811903854,0.3530168847485674,0.2698525328561733,0.2235567136226691,0.1719554544365944
0.1136316766343576,0.4853221502096835,0.677962676008893,0.7015089767595549,0.2303571428571428,0.5969286359530263,0.7667507204610953,0.474771079740557,0.3475622835779732,0.2648855432837663,0.2172054392964742,0.1620165249670698
0.1105382553103732,0.4837018680899732,0.6789058815603314,0.7040422954069832,0.2284013605442176,0.5968383017163505,0.7611671469740634,0.4707172834795879,0.3450494897802837,0.2622323687295613,0.2144776483999674,0.1569273140941204
0.1221901422973809,0.4967594357605794,0.6805228053627972,0.6903844035686748,0.2322278911564625,0.6040650406504066,0.7712536023054756,0.4753910721098817,0.3476848588851776,0.2654717097550442,0.2184268382053578,0.1623757633816309
0.1301299236956073,0.5016202821197101,0.678771137910126,0.683225024782465,0.2366496598639455,0.6052393857271906,0.7800792507204611,0.4807325448302175,0.3500137897220605,0.2686801999136176,0.222620307792525,0.1684828164291701
0.1246648793565683,0.491422035836828,0.6751330593545778,0.6921467121929727,0.2366496598639455,0.5980126467931346,0.7769272334293948,0.4802556276230447,0.3497686391076517,0.2677546739063368,0.2219281817441576,0.1678242126691414
0.1108475974427717,0.4715974075486084,0.670147544296975,0.7108712413261372,0.2340986394557823,0.585275519421861,0.7653097982708934,0.473769553605494,0.345478503355499,0.2627568334670204,0.2150476345574464,0.1596216022033289
0.1061043514126624,0.4543461685093403,0.6611197197332075,0.7234276902742591,0.2378401360544217,0.5710027100271003,0.7623378962536024,0.4699065242273941,0.3421996138877823,0.2592706855062627,0.2106913117824281,0.1546521374685666
0.1160032996494122,0.4524399542508577,0.6532372161961867,0.7192422072915519,0.2468537414965986,0.5648599819331527,0.7659402017291067,0.4719572682182373,0.3420463947537769,0.2588079225026223,0.2108541649702792,0.1556699796431565
0.1213652299443184,0.4581585970263057,0.6537761907970087,0.7130741271065095,0.2487244897959183,0.5679313459801265,0.7730547550432276,0.4758679893170546,0.3437011614010358,0.2614919479237367,0.2150883478544092,0.1614177942761346
0.1130129923695607,0.4530118185284025,0.6555952300747827,0.7205639387597752,0.2442176870748299,0.5666666666666667,0.764499279538905,0.470049599389546,0.3409738608157387,0.2590855803048066,0.2127676899275303,0.1583043946832714
0.1002268508970921,0.446149447197865,0.6590985649801253,0.7312479347945808,0.2366496598639455,0.5657633242999097,0.7452269452449568,0.4593189622281572,0.3350596022431281,0.2528228543222064,0.2053171565833401,0.1486049574901209
0.0985770261909672,0.4458635150590925,0.6600417705315637,0.732349377684767,0.2353741496598639,0.566305329719964,0.7334293948126802,0.4532144219763449,0.3308307541445776,0.2494601098290862,0.2018972396384659,0.1443539695844808
0.1110538255310373,0.4514868471216164,0.655797345550091,0.7224363916730917,0.24328231292517,0.5660343270099367,0.7390129682997119,0.4585082029759634,0.3338338491710845,0.2523292404516567,0.2057650028499307,0.1507603879774877
0.1256960197978964,0.4538696149447197,0.6479148420130701,0.7131842713955281,0.2542517006802721,0.5618789521228545,0.7465778097982709,0.4645650515070584,0.3381852725768394,0.2562164496822361,0.2107320250793909,0.1580649024068973
0.121571458032584,0.4443385436523064,0.6438725325069056,0.7208943716268311,0.2551020408163265,0.5547425474254742,0.7419848703170029,0.4628481495612361,0.3374498207336132,0.2549824150058617,0.20955133946747,0.1569273140941204
0.1100226850897092,0.4298513152878383,0.6411776595027959,0.7354334177772882,0.2520408163265306,0.5460704607046071,0.725864553314121,0.4540251812285387,0.3312904115465939,0.2487813907570802,0.2027522188746844,0.1480062267991857
0.1047638688389358,0.4230842546702249,0.6398302230007411,0.7422623636964424,0.2507653061224489,0.5419150858175248,0.7183897694524496,0.4486360167874857,0.3278583029448718,0.2454494971308694,0.1983958960996661,0.1427373967189558
0.1149721592080841,0.433949675943576,0.6407734285521793,0.7304769247714505,0.2543367346938775,0.5476964769647696,0.7279358789625361,0.4539774895078214,0.3317807127754114,0.2493367063614487,0.203403631626089,0.1499221650101784
0.127036502371623,0.4466260007624856,0.641918749578926,0.7167088886441237,0.2585884353741496,0.5544715447154471,0.7418047550432276,0.4621327737504769,0.3367450127171881,0.2543653976676745,0.2095920527644328,0.1574062986468686
0.1245617653124355,0.4441479222264582,0.6417840059287205,0.7194624958695891,0.2576530612244898,0.5532068654019874,0.7447766570605188,0.4623712323540633,0.3368369441975914,0.2551058184734991,0.210324892109763,0.1580050293378038
0.1130129923695607,0.4336637438048036,0.641918749578926,0.7316885119506553,0.2528061224489795,0.5483288166214996,0.7400036023054756,0.4585082029759634,0.3348450954555205,0.2529771086567532,0.2061721358195586,0.1520775954975452
0.1099195710455764,0.4341402973694243,0.6442767634575219,0.7330102434188787,0.2500850340136054,0.5501355013550135,0.7476585014409223,0.460797405570393,0.3356418349523489,0.253470722527303,0.2060092826317075,0.150341276493833
0.1185811507527325,0.4471025543271062,0.6477800983628647,0.7208943716268311,0.2514455782312925,0.5586269196025294,0.7675612391930836,0.4730541777947348,0.3433334354794227,0.2603813167149997,0.2139483755394511,0.1588432523051131
0.1294081253866776,0.4584445291650781,0.6487233039143029,0.7085582112567462,0.2552721088435374,0.5645889792231256,0.7851224783861672,0.4835940480732545,0.3505960224312812,0.2671068057012402,0.2217246152593436,0.1677044665309543
0.1261084759744277,0.4579679756004574,0.650542343192077,0.7106509527481,0.2527210884353741,0.565672990063234,0.7905259365994236,0.4862170927127051,0.352189501424938,0.2679397791077929,0.2220096083380832,0.1678242126691414
0.1164157558259434,0.451963400686237,0.6526308697702621,0.7192422072915519,0.2474489795918367,0.564137308039747,0.7802593659942364,0.4799217855780237,0.3492170502252322,0.2641451224779416,0.2171240127025486,0.1611184289306669
0.1159001856052794,0.4557758292032023,0.6556626018998855,0.7173697543782355,0.2453231292517006,0.5680216802168022,0.775756484149856,0.4771556657764212,0.3469494070419515,0.2631578947368421,0.215902613793665,0.1591426176505807
0.1294081253866776,0.4732176896683186,0.659165936805228,0.700077101002313,0.2486394557823129,0.5786811201445348,0.7845821325648414,0.4834986646318199,0.3504734471240769,0.2678780773739743,0.2220503216350459,0.1680038318764219
0.138482161270365,0.4812237895539458,0.6588964495048171,0.6906046921467122,0.2525510204081632,0.5822944896115628,0.7916966858789626,0.4879816863792446,0.3532926791897772,0.2710557166656383,0.2263252178161387,0.1747694886839899
0.1344607135491854,0.4743614182234082,0.6566731792764265,0.6966626280427359,0.2522959183673469,0.5775067750677507,0.7862031700288185,0.4849771079740557,0.3508105292188889,0.2691738137841673,0.223963846592297,0.1717159621602203
0.1193029490616622,0.4614944719786503,0.6574816411776595,0.7123031170833791,0.2455782312925169,0.5719060523938573,0.7743155619596542,0.4772987409385731,0.3456930101431067,0.2637132103412106,0.2173275791873626,0.1632738594180337
0.1113631676634357,0.4580632863133815,0.660176514181769,0.7184711972684216,0.2406462585034013,0.5720867208672087,0.7716138328530259,0.473578786722625,0.3430576410382129,0.2603504658480903,0.2128491165214559,0.1577056639923362
0.1157970715611466,0.4647350362180709,0.6619955534595432,0.7123031170833791,0.2413265306122448,0.576513098464318,0.7844020172910664,0.4781571919114841,0.3461833113719241,0.2631270438699327,0.2150069212604836,0.1609986827924799
0.1211590018560528,0.4696911932901257,0.6620629252846458,0.7064654697653926,0.2434523809523809,0.5789521228545619,0.7970100864553314,0.4839755818389927,0.3492170502252322,0.2664280866292343,0.2194446706294275,0.1672254819782062
0.1151783872963497,0.4631147540983605,0.6613892070336185,0.7135147042625839,0.2414115646258503,0.5753387533875338,0.786563400576369,0.4792541014879817,0.3468881193883493,0.2648546924168569,0.2177347121569904,0.1643515746617171
0.1045576407506702,0.4496759435760579,0.6587617058546116,0.7269523075228549,0.2386904761904761,0.5672086720867209,0.7590958213256486,0.4660434948492942,0.3400239021849049,0.2580366508298883,0.2098770458431723,0.155610106574063
0.0988863683233656,0.4430041936713686,0.6577511284780704,0.733781253442009,0.2369897959183673,0.5634146341463415,0.7447766570605188,0.458937428462419,0.3360095608739619,0.2542728450669464,0.2062128491165214,0.1505807687702071
0.1102289131779748,0.4517727792603888,0.6565384356262212,0.7227668245401476,0.2424319727891156,0.5666666666666667,0.7502701729106629,0.4619420068676078,0.3378788343088285,0.2559079410131425,0.2089406400130282,0.155610106574063
0.1196122911940606,0.4560617613419748,0.6534393316714949,0.7151668685978632,0.2482993197278911,0.5666666666666667,0.7549531700288185,0.4663773368943152,0.3408512855085343,0.2586228173011662,0.2131748228971581,0.1618369057597892
0.1174468962672716,0.4441479222264582,0.6464326618608097,0.7233175459852407,0.2517857142857143,0.5563685636856368,0.744506484149856,0.4651850438763831,0.3394723133024852,0.2579749490960696,0.2125641234427163,0.1611184289306669
0.1075479480305217,0.4292794510102935,0.6423903523546453,0.7371957264015859,0.2502551020408163,0.5465221318879855,0.72703530259366,0.4563620755436856,0.3338951368246867,0.2535324242611217,0.2064571288982981,0.1526763261884804
0.1088884306042483,0.4301372474266106,0.6421208650542343,0.7358739949333626,0.2509353741496598,0.5467931345980126,0.7202809798270894,0.451879053796261,0.3322710140042289,0.2514654161781946,0.2034443449230518,0.1492635612501497
0.1167250979583419,0.4391917651544033,0.6433335579060837,0.7265117303667804,0.2534013605442176,0.5518518518518518,0.7302773775216139,0.4573159099580313,0.3349676707627249,0.2531313629913,0.2074749613223678,0.1535744222248832
0.1207465456795215,0.4433854365230651,0.6437377888567001,0.7218856702279987,0.2548469387755102,0.55420054200542,0.7453170028818444,0.4646127432277757,0.3391352312076732,0.2572653791571543,0.2122791303639768,0.159741348341516
0.1156939575170138,0.4369996187571482,0.6425924678299535,0.7283841832800969,0.2534863945578231,0.550316169828365,0.7447766570605188,0.46365890881343,0.3383384917108449,0.2561855988153267,0.2108134516733164,0.1571668063704945
0.1028047020004124,0.427468547464735,0.6442093916324193,0.7407203436501817,0.2471088435374149,0.5468834688346884,0.7360410662824207,0.4581743609309424,0.3339564244782889,0.252606898253841,0.2050728768015634,0.1472278769009699
0.1044545267065374,0.4319481509721691,0.6463652900357071,0.7373058706906047,0.2464285714285714,0.5504968383017164,0.7357708933717579,0.4566959175887066,0.3341096436122943,0.2527303017214784,0.2048285970197866,0.146090288588193
0.1136316766343576,0.4478650400304994,0.6515529205686181,0.7230972574072034,0.2470238095238095,0.5615176151761517,0.7505403458213257,0.4647081266692102,0.3392271626880765,0.2574813352255198,0.2105691718915397,0.1532750568794156
0.1193029490616622,0.4623522683949675,0.6580879876035841,0.7117523956382861,0.2451530612244898,0.5727190605239386,0.7656700288184438,0.474103395650515,0.3445898323782674,0.2620781143950145,0.2166761664359579,0.1604598251706382
0.1117756238399669,0.4598741898589401,0.661254463383413,0.7172596100892168,0.2401360544217687,0.5737127371273713,0.7663904899135447,0.4738172453262114,0.3453865718750958,0.2625408773986549,0.2175311456721765,0.159741348341516
0.1032171581769437,0.4543461685093403,0.6629387590109815,0.7249697103205198,0.2355442176870748,0.5721770551038844,0.7548631123919309,0.4686188477680275,0.341770600312567,0.2588387733695317,0.213011969709307,0.1527960723266674
0.104145184574139,0.4650209683568432,0.6699454288216667,0.7182509086903843,0.2314625850340135,0.58193315266486,0.7497298270893373,0.4666157954979016,0.341402874390954,0.2584685629666193,0.212238417067014,0.152975691533948
0.1174468962672716,0.4819862752573388,0.6731792764265984,0.7013988324705365,0.2348639455782313,0.5922312556458899,0.7603566282420751,0.4719572682182373,0.3454172157018969,0.2618313074597397,0.2172868658903997,0.1598012214106095
0.1303361517838729,0.4881814715974075,0.6691369669204339,0.690935125013768,0.2427721088435373,0.5924119241192412,0.7708933717579252,0.4784910339565051,0.3490331872644256,0.2663046831615969,0.2228645875743017,0.1679439588073284
0.1247679934007011,0.477792603888677,0.665431516539783,0.6998568124242758,0.2427721088435373,0.5850045167118337,0.7726044668587897,0.479301793208699,0.3482058039407961,0.2657493675572284,0.2224574546046739,0.166746497425458
0.1128067642812951,0.4574914220358367,0.6588964495048171,0.7180306201123471,0.2420068027210884,0.5710027100271003,0.7676512968299712,0.4750572300648608,0.3446817638586707,0.2618930091935583,0.2172054392964742,0.1590228715123937
0.1146628170756857,0.4517727792603888,0.6535740753217004,0.7203436501817381,0.246173469387755,0.5646793134598013,0.7716138328530259,0.4732926363983212,0.3423834768485889,0.2598568519775406,0.2145997882908557,0.1550712489522213
0.1244586512683027,0.4597788791460159,0.6529003570706731,0.7104306641700626,0.250595238095238,0.5681120144534779,0.7829610951008646,0.4778233498664632,0.3450188459534827,0.262201517862652,0.2176532855630649,0.1608190635851993
0.1320890905341307,0.4656881433473122,0.6520918951694401,0.7030509968058156,0.2542517006802721,0.5702800361336947,0.7901657060518733,0.4813048454788248,0.3475622835779732,0.2651323502190412,0.2216024753684553,0.166866243563645
0.1241493091359043,0.4559664506290506,0.6504075995418716,0.7128538385284723,0.2520408163265306,0.5645889792231256,0.7809798270893371,0.4766310568485311,0.3440075996690467,0.2618930091935583,0.2177754254539532,0.1623757633816309
0.1064136935450608,0.4391917651544033,0.6501381122414606,0.7320189448177111,0.2448979591836734,0.5564588979223125,0.765850144092219,0.4659004196871423,0.3364692182759783,0.2552909236749553,0.208411367152512,0.1513591186684229
0.1015673334708187,0.439001143728555,0.6531698443710839,0.7346624077541579,0.2409863945578231,0.558446251129178,0.7552233429394812,0.4588420450209844,0.3337725615174823,0.2527920034552972,0.2054392964742284,0.1472877499700634
0.1156939575170138,0.453393061380099,0.6541804217476251,0.7188016301354774,0.246173469387755,0.5658536585365853,0.7565742074927955,0.4628481495612361,0.338032053442834,0.256895168754242,0.2105691718915397,0.1551311220213148
0.124871107444834,0.4609226077011055,0.6534393316714949,0.7096596541469324,0.2504251700680271,0.5689250225835591,0.7632384726224785,0.4698111407859596,0.3429044219042074,0.2613685444560992,0.2166354531389951,0.1635133516944078
0.1171375541348731,0.4507243614182233,0.6512834332682073,0.7196827844476263,0.2486394557823129,0.5626919602529359,0.757114553314121,0.46804654711942,0.3409738608157387,0.2603813167149997,0.2143962218060418,0.1589031253742066
0.1110538255310373,0.435379336637438,0.6444115071077275,0.7317986562396739,0.2504251700680271,0.5508581752484192,0.7394632564841499,0.4621804654711943,0.3362853553151718,0.256123897081508,0.2086963602312515,0.1507603879774877
0.1135285625902247,0.4352840259245139,0.642727211480159,0.7304769247714505,0.2525510204081632,0.5495934959349593,0.7286563400576369,0.4602727966425028,0.3353966843379402,0.255352625408774,0.2082485139646608,0.1498622919410848
0.1256960197978964,0.4495806328631337,0.6448831098834468,0.7157175900429563,0.2561224489795918,0.5579042457091238,0.7371217579250721,0.4671404044257917,0.3402996966261147,0.2597334485099031,0.2143962218060418,0.1584241408214584
0.1316766343575995,0.4579679756004574,0.6469716364616318,0.7076770569445974,0.257312925170068,0.5632339656729901,0.7462175792507205,0.4713372758489126,0.3433027916526216,0.2627568334670204,0.2187118312840973,0.1641719554544365
0.123221282738709,0.4466260007624856,0.6443441352826248,0.7188016301354774,0.2554421768707482,0.5560975609756098,0.7427053314121038,0.4685711560473102,0.3410964361229431,0.261090886653915,0.215129061151372,0.159741348341516
0.1096102289131779,0.4334731223789553,0.6440072761571111,0.7335609648639717,0.2500850340136054,0.549683830171635,0.733699567723343,0.4634204502098435,0.3371433824656023,0.256895168754242,0.2095106261705072,0.1516584840138905
0.1078572901629202,0.4366183759054517,0.6473758674122482,0.7326798105518229,0.2472789115646258,0.5533875338753388,0.7337896253602306,0.4628958412819535,0.3364692182759783,0.255784537545505,0.2078006676980701,0.1486648305592144
0.1189936069292637,0.4495806328631337,0.649262278515125,0.7192422072915519,0.2506802721088435,0.5607949412827462,0.747928674351585,0.4698588325066768,0.341739956485766,0.2602579132473623,0.2137040957576744,0.1559693449886241
0.1255929057537636,0.4613991612657261,0.6532372161961867,0.7088886441238021,0.2508503401360544,0.5691056910569106,0.7637788184438041,0.4773941243800076,0.3472252014831612,0.2661504288270501,0.2211546291018646,0.1659082744581487
0.1164157558259434,0.4626382005337399,0.660176514181769,0.7131842713955281,0.2426870748299319,0.5742547425474255,0.7645893371757925,0.4756772224341854,0.3459994484111175,0.2651632010859505,0.2198925168960182,0.1638127170398754
0.0990925964116312,0.4599695005718642,0.6695411978710503,0.7238682674303337,0.2296768707482993,0.5793134598012647,0.753692363112392,0.4638496756962991,0.3406674225477278,0.2598877028444499,0.2128898298184186,0.1532750568794156
0.0911528150134048,0.4755051467784978,0.6857104358957083,0.7192422072915519,0.216156462585034,0.5975609756097561,0.754592939481268,0.4590328119038535,0.3390739435540711,0.2599185537113593,0.210324892109763,0.1466890192791282
0.0962054031759125,0.4945672893633244,0.6959509533113252,0.7054741711642251,0.211734693877551,0.6134598012646794,0.7693623919308358,0.4642312094620374,0.3423834768485889,0.2649163941506757,0.2148440680726325,0.1516584840138905
0.0864095689832955,0.5222073961113228,0.7218891059758807,0.6946800308404009,0.1913265306122449,0.6439024390243903,0.7806195965417868,0.4603681800839374,0.3457236539699078,0.2702227432590856,0.2200146567869066,0.1541731529158184
0.0627964528768818,0.534502478078536,0.7460082193626625,0.7001872452913316,0.1664115646258503,0.6659439927732611,0.7961095100864555,0.4554559328500572,0.3489412557840223,0.2758376010365891,0.2216024753684553,0.1477068614537181
0.0704268921427098,0.5253526496378191,0.7344876372700936,0.7015089767595549,0.1768707482993197,0.6538392050587172,0.8315021613832854,0.4877432277756581,0.3811479177519689,0.3090331338310607,0.2494096571940395,0.1663273859418033
0.1453908022272633,0.5376477316050323,0.6942666576837566,0.6542570767705694,0.2331632653061224,0.6327009936766034,0.8851765129682998,0.5728252575352919,0.4656023044157755,0.4020176466958722,0.3370246722579594,0.2484133636690216
0.2810888843060425,0.5561380099123141,0.6186754699184801,0.5710981385615155,0.3368197278911564,0.5907859078590786,0.9110230547550432,0.6707363601678749,0.5826923666227439,0.5397359165792559,0.4693428873870205,0.3809723386420787
0.4561765312435554,0.5732939382386579,0.5164050394125177,0.4677827954620552,0.473469387755102,0.5303523035230352,0.8673451008645534,0.7719381915299504,0.7246345723653972,0.7033072129326835,0.6249083950818337,0.5426296251945875
0.6288925551660135,0.5935951200914982,0.4179074311123087,0.3636964423394646,0.6068877551020407,0.4739837398373984,0.7709834293948127,0.8523464326592903,0.8480372628933903,0.8472265070648486,0.7650842765247129,0.6956053167285354
0.7832542792328314,0.6323865802516202,0.34447214175032,0.2589492234827624,0.7168367346938774,0.4430894308943089,0.6304034582132565,0.8815814574589852,0.903870315324978,0.917257974949096,0.8557527888608419,0.8164890432283558
0.9338007836667354,0.6626953869614944,0.2675335174829886,0.1609208062561956,0.8275510204081631,0.4058717253839205,0.4452449567723344,0.8581648225867989,0.9056783011062424,0.9194792373665702,0.8963439459327417,0.9096515387378756
0.9573107857290164,0.620091498284407,0.2220575355386377,0.1730366780482431,0.8659013605442175,0.3551942186088527,0.3373559077809798,0.7748950782144219,0.8401311555787088,0.8396680446720552,0.839793176451429,0.8921686025625674
0.8078985357805734,0.5069576820434616,0.2397089537155561,0.3182068509747769,0.7931122448979591,0.3134598012646793,0.2306376080691642,0.5377241510873713,0.6103943860509301,0.6289874745480349,0.6558505007735526,0.7290144892827205
0.5479480305217571,0.4493900114372854,0.3688607424375126,0.4902522304218526,0.6045068027210885,0.3727190605239385,0.1130223342939481,0.2279187333078977,0.284466644194527,0.3322638366138089,0.3870206009282632,0.4653933660639444
0.3279026603423386,0.462733511246664,0.522064272721148,0.6001762308624298,0.4170918367346938,0.4817524841915085,0.0606988472622478,0.0478347958794353,0.0682438022860294,0.1086567532547665,0.1617132155361941,0.2268590587953538
0.2787172612909878,0.4552039649256575,0.5488782591120394,0.630686198920586,0.3798469387755102,0.4962059620596206,0.1390489913544668,0.1056848531095002,0.0862623724450709,0.0969025729623002,0.126577640257308,0.1705783738474434
0.2679934007011755,0.4593976362943194,0.5588492892272452,0.634100671880163,0.3691326530612244,0.5047877145438121,0.3302413544668588,0.2613029378099962,0.196825299543407,0.1733510211636947,0.1769399886002768,0.1933301401029816
0.2276758094452464,0.4714067861227601,0.5936805228053628,0.6486397180306201,0.3305272108843537,0.5338753387533876,0.5116174351585016,0.3807706982067914,0.2798394263475623,0.2292836428703647,0.2120755638791629,0.1980002394922763
0.1838523406888018,0.4545367899351886,0.6103887354308427,0.6817931490252229,0.3019557823129251,0.5371273712737127,0.6171649855907781,0.4431037771842808,0.3227101400422885,0.2518356265811069,0.2159433270906277,0.1776433960004789
0.1604454526706537,0.4179374761723217,0.599878730714815,0.7154973014649191,0.2988945578231292,0.5126467931345979,0.6639949567723343,0.4608927890118275,0.3347225201483161,0.2547356080705868,0.2104470320006514,0.1637528439707819
0.1440503196535368,0.4113610369805565,0.605874823148959,0.7279436061240225,0.2883503401360544,0.5136404697380307,0.6955151296829971,0.4650896604349485,0.336377286795575,0.2531930647251188,0.2063349890074098,0.1573464255777751
0.1385852753144978,0.4241326725123903,0.6184733544431719,0.7235378345632779,0.2781462585034013,0.5280939476061428,0.7355007204610952,0.4743895459748188,0.3410964361229431,0.2544270994014932,0.2060499959286703,0.1576457909232427
0.1307486079604042,0.4270873046130384,0.6256821397291653,0.7259610089216874,0.2703231292517006,0.5343270099367661,0.7645893371757925,0.4820202212895841,0.3436705175742347,0.2549515641389523,0.2039329044866053,0.1550113758831277
0.1086822025159826,0.4117422798322531,0.6292528464596105,0.7466681352571869,0.2590136054421768,0.5294489611562783,0.7734149855907781,0.4816863792445632,0.3415560935249594,0.249614364163633,0.1971744971907825,0.1441743503772003
0.0896061043514126,0.3975409836065574,0.6316782321633092,0.7650622315232954,0.2496598639455782,0.5243902439024389,0.7715237752161384,0.4772033574971385,0.3371740262924034,0.2431665329795767,0.1881361452650435,0.1312417674529996
0.0876469375128892,0.3999237514296606,0.6347099642929326,0.7647317986562396,0.246938775510204,0.5274616079494129,0.7785482708933718,0.4790633346051125,0.3376030398676187,0.242333559573024,0.1850012213989088,0.1260926835109567
0.0967209733965766,0.4097407548608462,0.635653169844371,0.7542680911994712,0.2499999999999999,0.5327913279132792,0.8016030259365994,0.4897462800457841,0.3446817638586707,0.2468377861417906,0.1906603696767364,0.1319602442821219
0.1022891317797484,0.4127906976744185,0.6341709896921107,0.7495318867716709,0.2532312925170067,0.5332429990966576,0.8201548991354468,0.4997615413964136,0.3506879539116845,0.251496267045104,0.1962380913606383,0.1389055202969704
0.0913590431016704,0.4035455585207776,0.6347773361180354,0.7606564599625509,0.2483843537414965,0.5292682926829267,0.829520893371758,0.5004769172071728,0.3515459810621151,0.2506632936385513,0.1935103004641315,0.133816309424021
0.0780573314085378,0.3915364086923369,0.6349794515933436,0.7746447846679149,0.2427721088435373,0.5237579042457091,0.8315922190201729,0.4997138496756963,0.3496460638004474,0.2470537422101561,0.1877697255923784,0.1239971260926835
0.0791915858939987,0.3910598551277163,0.633834130566597,0.7744244960898777,0.2439625850340135,0.5226738934056007,0.8325828530259366,0.5006676840900419,0.3501363650292649,0.2466526809403344,0.1876068724045272,0.1241168722308705
0.0930088678077954,0.4011627906976743,0.632015091288823,0.7610970371186253,0.2508503401360544,0.5262872628726287,0.8437500000000001,0.5076306753147654,0.35421199399381,0.2511260566421917,0.1929403143066525,0.1325589749730571
0.0976489997937719,0.4022112085398398,0.6297244492353298,0.7580129970261041,0.2541666666666666,0.5252032520325203,0.855727665706052,0.5123044639450592,0.3561119112554776,0.2532239155920281,0.1953016855304942,0.1359118668422943
0.0850690864095689,0.3903926801372473,0.6295223337600215,0.7716708888644124,0.2490646258503401,0.5195121951219512,0.8511347262247838,0.507392216711179,0.3528023779609597,0.2490898994261739,0.190538229785848,0.1296251945874745
0.0667147865539286,0.3736179946626,0.629657077410227,0.7910562837316883,0.2414115646258503,0.5116531165311653,0.8353746397694525,0.4958508202975963,0.3458155854503111,0.24156228790029,0.1821512906115137,0.1175907076996766
0.068673953392452,0.3760960731986275,0.6301960520110489,0.7886331093732789,0.241921768707483,0.5131887985546523,0.8248378962536024,0.4901755055322396,0.3432108601722183,0.2391867711482693,0.1792606465271557,0.1132199736558496
0.0846566302330377,0.3928707586732748,0.6316108603382066,0.770349157396189,0.2476190476190476,0.5221318879855466,0.8240273775216139,0.4938954597481877,0.3465510372935372,0.2429814277781206,0.1847162283201693,0.1208238534307268
0.0906372447927407,0.4015440335493708,0.6337667587414942,0.7621984800088115,0.2487244897959183,0.5276422764227642,0.8225864553314122,0.4964231209462038,0.3482058039407961,0.244986734127229,0.1879732920771923,0.126691414201892
0.0825943493503815,0.3926801372474265,0.6328235531900558,0.7716708888644124,0.2460034013605442,0.5227642276422765,0.809978386167147,0.4909385730637162,0.3444059694174609,0.2412537792311964,0.1837391091930624,0.1219614417435037
0.0699113219220457,0.3800038124285169,0.6321498349390284,0.7856592135697763,0.2412414965986394,0.5163504968383018,0.7909762247838616,0.4821156047310186,0.3385223546716514,0.2355155179860554,0.1766957088185001,0.1120823853430726
0.0739327696432254,0.382958444529165,0.6316108603382066,0.7818041634541248,0.2431972789115646,0.5173441734417343,0.7831412103746399,0.481495612361694,0.3371127386388012,0.2342506324427716,0.1747414705642863,0.1112441623757633
0.0870282532480923,0.3989706443004193,0.6344404769925217,0.7656129529683885,0.2468537414965986,0.526829268292683,0.7880043227665707,0.4869324685234643,0.3409125731621365,0.2369655087307953,0.1788128002605651,0.1168123578014608
0.0881625077335533,0.4079298513152878,0.6399649666509466,0.7598854499394206,0.2437925170068027,0.5348690153568202,0.7953890489913544,0.4919400991987791,0.3440995311494499,0.2398037884864565,0.1826805634720299,0.1214824571907555
0.0788822437616003,0.4033549370949293,0.6427945833052616,0.7673752615926863,0.2381802721088435,0.5345980126467931,0.7954791066282422,0.492417016405952,0.3442221064566543,0.2387240081446289,0.1804413321390766,0.1174709615614896
0.0675396989069911,0.3946816622188333,0.6440746479822138,0.7784998347835664,0.2327380952380952,0.5312556458897922,0.7892651296829971,0.4869324685234643,0.3412496552569485,0.2349293515147776,0.1747414705642863,0.1096275895102383
0.0704268921427098,0.3930613800991231,0.6410429158525903,0.7778389690494547,0.2357993197278911,0.5285456187895212,0.7940381844380404,0.488220144982831,0.340422271933319,0.2333251064354909,0.1726650924191841,0.1078313974374326
0.0824912353062487,0.4033549370949293,0.6404365694266658,0.7655028086793699,0.2411564625850339,0.5329719963866305,0.8105187319884726,0.4982830980541778,0.3455397910091012,0.2364101931264269,0.1771435550850907,0.1133995928631301
0.0854815425861002,0.4061189477697293,0.6405039412517685,0.7623086242978302,0.2423469387755102,0.5343270099367661,0.8270893371757925,0.5078691339183518,0.349186406398431,0.2393718763497254,0.1803191922481882,0.1178900730451443
0.0771293050113425,0.3916317194052611,0.635653169844371,0.7751955061130079,0.2420068027210884,0.5242095754290876,0.8349243515850144,0.5093475772605875,0.3491251187448289,0.236934657863886,0.1767771354124257,0.1134594659322236
0.0644462775830067,0.3769538696149447,0.633564643266186,0.7903954179975768,0.2380102040816326,0.5158988256549232,0.8378061959654179,0.5094429607020221,0.3469494070419515,0.23239958042821,0.1698558749287517,0.1023829481499221
0.0652711899360692,0.3801944338543651,0.6353163107188573,0.7880823879281859,0.2373299319727891,0.5185185185185186,0.852485590778098,0.5159290347195727,0.3487880366500169,0.2319059665576603,0.1681052031593518,0.1004670099389294
0.078469787585069,0.3951582157834539,0.6372700936468368,0.7724418988875427,0.2414965986394557,0.5269196025293585,0.8749099423631124,0.5266596718809615,0.3556216100266601,0.2361325353242426,0.1731536519827375,0.1088492396120225
0.0840379459682408,0.3983987800228745,0.6359900289698848,0.767485405881705,0.2445578231292516,0.5276422764227642,0.8946325648414987,0.5382487600152613,0.360984279716851,0.2397420867526377,0.1771842683820535,0.1147168003831876
0.0743452258197566,0.3877239801753716,0.6347099642929326,0.7788302676506222,0.2414115646258503,0.5217705510388437,0.9009365994236312,0.5415871804654713,0.3596053075108019,0.2359782809896958,0.1733165051705887,0.1096874625793318
0.0603217158176943,0.3712352268394967,0.6322172067641312,0.7959026324485075,0.2371598639455782,0.5121951219512195,0.9020172910662824,0.539870278519649,0.357245732847118,0.2306102301474671,0.1657031186385473,0.0999281523170877
0.0578469787585069,0.3610369805566145,0.6266253452806037,0.8030620112347174,0.2397108843537415,0.5037037037037037,0.9115634005763688,0.5445440671499429,0.3576747464223332,0.2284506694638119,0.1624053415845615,0.0963357681714764
0.07630439265828,0.371425848265345,0.6219093175234117,0.7873113779050556,0.2503401360544217,0.505420054200542,0.9307456772334296,0.5602823349866464,0.3644163883185732,0.2323378786943913,0.1673316505170588,0.104777870913663
0.0884718498659517,0.3739039268013724,0.6157111096139594,0.7792708448066967,0.2592687074829932,0.5024390243902439,0.9427233429394812,0.5690576115986264,0.3687678117243281,0.2343740359104091,0.1710365605406725,0.1113639085139504
0.0838317178799752,0.3631338162409454,0.6111971973320758,0.7880823879281859,0.2602040816326531,0.4943089430894308,0.939841498559078,0.5679130103014117,0.3672969080378758,0.2322761769605726,0.1687566159107564,0.1098670817866123
0.0790884718498659,0.3487418985894014,0.6041231556962877,0.79887652825201,0.2626700680272109,0.4827461607949412,0.9350684438040346,0.5671499427699352,0.3650905525081973,0.2282347133954464,0.1639524468691474,0.1055562208118788
0.0865126830274283,0.3415935951200914,0.594152125581082,0.7989866725410287,0.2720238095238095,0.4727190605239386,0.9393912103746398,0.5725391072109881,0.3662856617534398,0.22854322206454,0.1641153000569986,0.1071129206083103
0.1080635182511858,0.3502668699961875,0.5862022502189584,0.7824650291882365,0.2858843537414965,0.4714543812104787,0.95217939481268,0.5854158718046547,0.3743143443753256,0.2343740359104091,0.1721765328556306,0.1188480421506406
0.1190967209733965,0.3521730842546702,0.5802735296099171,0.775525938980064,0.2942176870748298,0.468383017163505,0.955421469740634,0.5960511255246089,0.3795544387583122,0.238137841673351,0.1773471215699047,0.1269907795473596
0.1123943081047638,0.3399733130003812,0.5760964764535471,0.7862099350148695,0.294047619047619,0.4598012646793134,0.9358789625360232,0.5920927127050745,0.3770722887874238,0.2352995619176899,0.1747414705642863,0.1245958567836187
0.1074448339863889,0.3310141059855127,0.5729973724988209,0.7940301795351911,0.294047619047619,0.4534778681120144,0.9104827089337176,0.5837943533002671,0.3733643857444918,0.2319368174245696,0.170181581304454,0.1210034726380074
0.119406063105795,0.339115516584064,0.5708414740955332,0.782905606344311,0.3002551020408163,0.4558265582655826,0.8919308357348703,0.5814097672644029,0.3750191523917507,0.2351144567162337,0.1739272046250305,0.1257334450963956
0.1436378634770055,0.3630385055280213,0.5719867951222798,0.7561405441127876,0.3095238095238095,0.4680216802168021,0.8794128242074928,0.5866081648225868,0.3821285202096038,0.2451409884617758,0.1871183128409738,0.1413004430607113
0.1595174262734584,0.3852459016393442,0.5773091693053964,0.7347725520431765,0.3127551020408163,0.4821138211382114,0.869506484149856,0.5896127432277757,0.3889927374130482,0.2566792126858765,0.200920120511359,0.1574062986468686
0.1599298824499897,0.394491040792985,0.5836421208650543,0.7292653375922459,0.3089285714285714,0.4906955736224028,0.8431195965417868,0.5795020984357115,0.3897894769098766,0.2625408773986549,0.2073935347284423,0.1632139863489402
0.1533305836254897,0.4025924513915363,0.59361315098026,0.7281638947020597,0.2999149659863945,0.5012646793134599,0.8170028818443805,0.5668637924456315,0.3874605460729936,0.2654100080212254,0.2102434655158374,0.1632139863489402
0.1579707156114663,0.4251810903545557,0.6066159132250892,0.712633549950435,0.2936224489795918,0.5206865401987353,0.8025936599423631,0.5586131247615415,0.3886250114914351,0.2711791201332758,0.2177347121569904,0.1703987546401628
0.1703444009074036,0.4532977506671749,0.6183386107929663,0.6897235378345633,0.2913265306122449,0.5418247515808491,0.8049351585014409,0.5579931323922167,0.3930377225507922,0.2808662923428149,0.2308036804820454,0.1828523530116153
0.1719942256135285,0.471311475409836,0.6299939365357408,0.6784888203546645,0.2846088435374149,0.5581752484191508,0.809077809798271,0.5550839374284624,0.3952134342536696,0.2881779478003332,0.2399641722986727,0.1910549634774278
0.1601361105382553,0.4715974075486084,0.6379438118978643,0.6845467562506884,0.2747448979591836,0.5636856368563685,0.7976404899135447,0.543733307897749,0.3901572028314896,0.2882705004010613,0.2389870531715658,0.1890192791282481
0.1430191792122087,0.463400686237133,0.6433335579060837,0.6984249366670338,0.2642857142857142,0.5634146341463415,0.780349423631124,0.5279950400610455,0.3814237121931787,0.2831801073610169,0.2333279048937382,0.1787211112441623
0.1405444421530212,0.4669271826153259,0.6475106110624537,0.6977640709329221,0.2606292517006802,0.5678410117434508,0.7768371757925072,0.5190766882869134,0.3786044801274784,0.2826556426235577,0.2323507857666313,0.1764459346186085
0.1470406269333883,0.4761723217689667,0.6497338812908442,0.688952527811433,0.2619047619047619,0.5737127371273713,0.7878242074927955,0.5205551316291492,0.37949315110471,0.2857715801814031,0.2370735282143148,0.181894383906119
0.1496184780367085,0.4770301181852839,0.6486559320892002,0.6870800748981165,0.2636904761904761,0.5733514001806685,0.7942182997118157,0.5228920259442962,0.3798915208531242,0.2874375269945086,0.2397606058138588,0.1848880373607951
0.1396164157558259,0.4663553183377811,0.6476453547126592,0.6985350809560523,0.2602040816326531,0.5676603432700993,0.786563400576369,0.5182659290347196,0.3767045628658107,0.2845066946381194,0.2358928426023939,0.1799784456951263
0.1274489585481542,0.4558711399161265,0.648184329313481,0.711201674193193,0.2547619047619047,0.5630532971996387,0.7755763688760807,0.5099198779091949,0.3719547697116416,0.2801567224038996,0.2296637081670873,0.1715363429529397
0.1272427304598886,0.4583492184521539,0.6500707404163578,0.7097697984359511,0.2534863945578231,0.5654923215898826,0.7774675792507205,0.5058660816482259,0.3699629209695707,0.279508854198803,0.2277501832098363,0.1693210393964794
0.1341513714167869,0.4656881433473122,0.6507444586673853,0.7018394096266107,0.2559523809523809,0.5694670280036134,0.7896253602305475,0.5099675696299123,0.3715870437900285,0.2817918183500957,0.2314958065304128,0.1740510118548676
0.1348731697257166,0.4672131147540983,0.6512834332682073,0.7006278224474061,0.2559523809523809,0.5704607046070461,0.8020533141210375,0.5118752384586036,0.3729353721692766,0.283365212562473,0.2338164644572917,0.1770446653095437
0.1238399670035058,0.4590163934426229,0.6527656134204676,0.7113118184822117,0.2504251700680271,0.5675700090334236,0.797550432276657,0.5062953071346814,0.3695645512211565,0.2804652310729931,0.2298672746519013,0.1715363429529397
0.1135285625902247,0.4448150972169271,0.6494643939904331,0.7249697103205198,0.2482993197278911,0.558717253839205,0.7969200288184438,0.5016692102251049,0.3657647166978213,0.2764854692416857,0.2240452731862225,0.1623757633816309
0.1131161064136935,0.4381433473122378,0.6450178535336522,0.7290450490142085,0.2509353741496598,0.5525745257452574,0.8106087896253603,0.5066291491797024,0.3665921000214507,0.2761769605725921,0.2232717205439296,0.1605795713088253
0.1256960197978964,0.44834159359512,0.6439399043320084,0.7164886000660866,0.2567176870748299,0.5566395663956639,0.8281700288184438,0.5161674933231591,0.3719241258848406,0.2812365027457272,0.2298672746519013,0.1695605316728535
0.1337389152402557,0.452630575676706,0.6417840059287205,0.7096596541469324,0.2613945578231292,0.5572719060523939,0.8302413544668589,0.517312094620374,0.3738546869733092,0.2839822299006602,0.2341014575360312,0.1765656807567956
0.128686327077748,0.4384292794510102,0.6350468234184464,0.7205639387597752,0.2636054421768707,0.5459801264679314,0.8168227665706053,0.5119229301793209,0.3704532221983881,0.2812982044795459,0.2316586597182639,0.1735720273021194
0.1180655805320684,0.4227983225314524,0.6309371420871791,0.7352131291992511,0.2618197278911564,0.5358626919602529,0.7984510086455332,0.5058183899275086,0.3663163055802409,0.2773184426482384,0.2269359172705805,0.1674051011854867
0.1206434316353887,0.4235608082348455,0.6297918210604324,0.7334508205749531,0.2636054421768707,0.5354110207768744,0.7936779538904899,0.5053891644410531,0.3663163055802409,0.2774109952489665,0.2264473577070271,0.1666866243563645
0.1359043101670447,0.4358558902020586,0.6285117563834804,0.7181407644013658,0.2707482993197279,0.5403794037940379,0.8012427953890491,0.5109214040442579,0.3701774277571784,0.2816375640155489,0.2320657926878918,0.1745898694767093
0.1424004949474118,0.4398589401448722,0.6270969480563229,0.7124132613723978,0.2743197278911564,0.5413730803974707,0.8002521613832854,0.5122567722243418,0.3712499616952165,0.2836120194977479,0.234915723475287,0.1788408573823494
0.1334295731078573,0.4317575295463209,0.6272316917065283,0.7218856702279987,0.2704931972789116,0.5375790424570912,0.7845821325648414,0.5066768409004198,0.3680017160543009,0.280280125871537,0.2305186874033059,0.1733924080948389
0.1268302742833573,0.4256576439191764,0.6272316917065283,0.72893490472519,0.2677721088435373,0.5346883468834688,0.7652197406340058,0.4974246470812666,0.3634051420341372,0.2758684519034985,0.2255109518768829,0.16524967069812
0.1340482573726541,0.4382386580251619,0.6314761166880011,0.71781033153431,0.2680272108843537,0.5435411020776875,0.7616174351585014,0.4972338801983976,0.363987374743358,0.2772875917813291,0.2278316098037618,0.1676445934618608
0.1462157145803258,0.4589210827296987,0.6380785555480698,0.6993060909791826,0.2688775510204081,0.5577235772357724,0.7682817002881845,0.5046737886302938,0.3691968252995434,0.2841056333682977,0.2356078495236544,0.177763142138666
0.148277995462982,0.4673084254670224,0.6426598396550561,0.6934684436611961,0.2668367346938775,0.564769647696477,0.7732348703170029,0.5090614269362839,0.3731498789568842,0.2884556056025175,0.2405748717531145,0.1836905759789247
0.1379665910497009,0.4614944719786503,0.6452873408340631,0.7022799867826852,0.260969387755102,0.5637759710930442,0.7635987031700289,0.503529187333079,0.3713418931756198,0.2866662553217746,0.2388241999837146,0.1805771763860615
0.1278614147246855,0.4542508577964163,0.6468368928114263,0.7118625399273047,0.2558673469387755,0.5613369467028003,0.7457672910662825,0.4936093094238841,0.3661630864462354,0.2807428888751774,0.2330021985180359,0.172254819782062
0.1362136522994431,0.465592832634388,0.6493296503402277,0.7008481110254433,0.2577380952380952,0.5684733514001806,0.7476585014409223,0.4958031285768791,0.3672049765574725,0.2816992657493676,0.2338978910512173,0.1741707579930547
0.1472468550216539,0.4847502859321387,0.6555952300747827,0.6838858905165767,0.2583333333333333,0.5816621499548329,0.7687319884726226,0.5053414727203358,0.3726289339012656,0.2880853951996051,0.2405341584561517,0.1839300682552987
0.1488966797277789,0.4848455966450627,0.6545846526982415,0.6828945919154091,0.2596088435374149,0.5811201445347787,0.7802593659942364,0.5100629530713469,0.3750191523917507,0.2903375084839884,0.2427326764921423,0.1881810561609388
0.1359043101670447,0.4674037361799465,0.650811830492488,0.6999669567132943,0.2566326530612244,0.5702800361336947,0.7708933717579252,0.5027184280808852,0.3705757975055925,0.2851237119763065,0.2364628287598729,0.1796790803496587
0.1187873788409981,0.4527258863896301,0.6515529205686181,0.7175900429562727,0.2490646258503401,0.5638663053297199,0.7616174351585014,0.4937523845860359,0.3641405938773634,0.2793854507311656,0.229338001791385,0.1683630702909831
0.1184780367085997,0.4595882577201677,0.6567405511015293,0.7137349928406211,0.2457482993197279,0.5705510388437217,0.7635086455331412,0.4925123998473865,0.3624858272301045,0.2785524773246128,0.2282387427733898,0.1657286552508681
0.1290987832542792,0.4778879146016012,0.6626018998854679,0.6975437823548849,0.2464285714285714,0.583107497741644,0.7772874639769453,0.497806180847005,0.3666840315018539,0.2829024495588326,0.2339793176451428,0.1726739312657166
0.1334295731078573,0.4846549752192146,0.6646230546385501,0.6912655578808239,0.246938775510204,0.5877145438121048,0.7874639769452451,0.5005723006486074,0.369043606165538,0.2851854137101253,0.2369106750264636,0.1782421266914141
0.1229119406063105,0.4728364468166221,0.6631408744862898,0.7037118625399272,0.2435374149659863,0.5811201445347787,0.7827809798270894,0.4962800457840519,0.3659179358318267,0.2823471339544641,0.2332871915967755,0.1726739312657166
0.1121880800164982,0.4574914220358367,0.6593006804554334,0.718361052979403,0.2414965986394557,0.5712737127371273,0.778728386167147,0.4901278138115224,0.3618116630404805,0.2783673721231567,0.2275873300219851,0.1641719554544365
0.1130129923695607,0.4514868471216164,0.6545846526982415,0.7214450930719243,0.244812925170068,0.5652213188798554,0.7936779538904899,0.4943246852346433,0.3625777587105078,0.2784599247238848,0.2272616236462828,0.1648904322835588
0.1259022478861621,0.4535836828059473,0.6475779828875563,0.7132944156845467,0.2545068027210884,0.5615176151761517,0.8164625360230547,0.5046737886302938,0.3675727024790856,0.2820386252853705,0.2325136389544825,0.1728535504729972
0.1266240461950917,0.4490087685855889,0.6438725325069056,0.7156074457539375,0.2571428571428571,0.556910569105691,0.8326729106628243,0.5103014116749333,0.3697790580087641,0.2838588264330228,0.2338571777542545,0.1759070769967668
0.1160032996494122,0.433282500953107,0.6396954793505356,0.730366780482432,0.2554421768707482,0.5466124661246612,0.8276296829971183,0.5058183899275086,0.3648760457205896,0.2794163015980749,0.2284015959612409,0.1684828164291701
0.1051763250154671,0.423942051086542,0.6401670821262548,0.741491353673312,0.2506802721088435,0.5425474254742547,0.8093479827089338,0.4943723769553605,0.3581344038243496,0.2733695316838403,0.2215210487745297,0.1606993174470123
0.1109507114869045,0.4326153259626381,0.642457724179748,0.7333406762859346,0.2516156462585034,0.5481481481481482,0.8031340057636889,0.4927985501716901,0.3564489933502896,0.2725365582772877,0.2216839019623809,0.1607591905161058
0.1198185192823262,0.4428135722455203,0.6438725325069056,0.7227668245401476,0.2543367346938775,0.553929539295393,0.8038544668587897,0.4946585272796643,0.358256979131554,0.2743876102918492,0.2255516651738457,0.1662675128727098
0.1234275108269746,0.4402401829965687,0.6397628511756382,0.722326247384073,0.2584183673469387,0.5500451671183378,0.7916966858789626,0.4925123998473865,0.3570618698863114,0.2745110137594867,0.2267323507857666,0.1699796431565082
0.1131161064136935,0.4225123903926801,0.6339015023916998,0.738076880713735,0.2579081632653061,0.5376693766937669,0.7626981268011529,0.4808756199923693,0.3497073514540496,0.2689270068488925,0.2212360556957902,0.1635133516944078
0.1042482986182718,0.4102173084254669,0.6310718857373846,0.7499724639277453,0.2560374149659863,0.5299909665763324,0.7381123919308358,0.4696203739030904,0.3426899151165998,0.2632812982044795,0.2147219281817441,0.1550712489522213
0.1111569395751701,0.4178421654593975,0.6319477194637202,0.7418217865403678,0.2583333333333333,0.5341463414634147,0.7318083573487032,0.4673788630293781,0.341402874390954,0.2625100265317456,0.2148847813695953,0.1564483295413722
0.122087028253248,0.4312809759817002,0.6343057333423162,0.7282740389910782,0.2613945578231292,0.5420957542908762,0.737391930835735,0.4726249523082793,0.3445591885514664,0.2658727710248658,0.2209917759140135,0.1653095437672135
0.1250773355330996,0.4320434616850933,0.6328909250151586,0.7261812974997246,0.2635204081632653,0.5414634146341463,0.7411743515850144,0.4750095383441434,0.3455397910091012,0.2670142531005122,0.2223760280107483,0.1686624356364507
0.1169313260466075,0.4250857796416316,0.6332277841406723,0.7345522634651392,0.2598639455782313,0.5384823848238482,0.7323487031700289,0.4681896222815719,0.3418318879661692,0.264083420744123,0.2174904323752137,0.1624356364507244
0.1074448339863889,0.4273732367518109,0.6411102876776932,0.7382971692917721,0.2510204081632653,0.5448057813911472,0.7207312680115274,0.4615604731018695,0.3383691355376459,0.2602579132473623,0.2132155361941209,0.1548317566758472
0.1094040008249123,0.4464353793366373,0.6533045880212894,0.7262914417887432,0.2441326530612244,0.562059620596206,0.72289265129683,0.4632296833269745,0.3406061348941256,0.2627568334670204,0.2163097467632929,0.1586636330978325
0.1212621159001856,0.4686427754479602,0.661254463383413,0.7070161912104856,0.2439625850340135,0.5778681120144534,0.7373018731988473,0.4706695917588707,0.3462445990255263,0.2685259455790708,0.223393860434818,0.1686025625673571
0.1234275108269746,0.471311475409836,0.6617260661591322,0.704372728274039,0.2445578231292516,0.5794037940379403,0.7425252161383287,0.4710511255246089,0.3470413385223547,0.2693897698525329,0.2238009934044459,0.1703388815710693
0.1087853165601154,0.4530118185284025,0.6583574749039951,0.7227668245401476,0.2407312925170067,0.5684733514001806,0.7370317002881845,0.4637542922548645,0.3422915453681856,0.2638983155426668,0.2160654669815161,0.1603999521015447
0.0923901835429985,0.4380480365993137,0.658424846729098,0.7401696222050886,0.2339285714285714,0.5615176151761517,0.7285662824207493,0.4570297596337276,0.3363159991419729,0.2574504843586105,0.2077599544011074,0.1499820380792719
0.0998143947205609,0.4457682043461684,0.6590985649801253,0.7317986562396739,0.2365646258503401,0.5655826558265583,0.7339697406340058,0.458603586417398,0.3368369441975914,0.2581292034306164,0.2087777868251771,0.150341276493833
0.1102289131779748,0.4584445291650781,0.661254463383413,0.7188016301354774,0.2394557823129251,0.5730803974706413,0.7475684438040345,0.4658527279664251,0.341770600312567,0.2624174739310175,0.2146812148847813,0.1583642677523649
0.1090946586925139,0.4583492184521539,0.6619281816344404,0.7195726401586078,0.2385204081632653,0.5734417344173443,0.7523414985590778,0.4679034719572682,0.3433027916526216,0.2633121490713889,0.2158211871997394,0.1604598251706382
0.1005361930294906,0.4455775829203201,0.6584922185542006,0.7314682233726181,0.2371598639455782,0.5651309846431798,0.7441462536023055,0.4628004578405189,0.338706217632458,0.2593632381069908,0.2097141926553212,0.1520177224284516
0.087750051557022,0.4349980937857414,0.6593680522805363,0.744355105187796,0.2313775510204081,0.5607046070460705,0.7368515850144093,0.457268218237314,0.3348144516287194,0.2554760288764114,0.2036479114078657,0.1443539695844808
0.089915446483811,0.4433854365230651,0.66388196456242,0.7384073135807908,0.2294217687074829,0.5676603432700993,0.7473883285302595,0.4590328119038535,0.3359176293935587,0.2556919849447769,0.2037293380017913,0.1456711771045384
0.1033202722210765,0.4609226077011055,0.6675200431179681,0.7211146602048684,0.2326530612244897,0.5784101174345077,0.7642291066282422,0.4670450209843572,0.3409125731621365,0.2601653606466342,0.2108134516733164,0.1549515028140342
0.1028047020004124,0.4632100648112847,0.6694064542208449,0.7200132173146822,0.2312925170068027,0.5807588075880759,0.7721541786743517,0.4709557420831743,0.3432415039990194,0.2628802369346579,0.2140298021333767,0.1596216022033289
0.0925964116312641,0.4514868471216164,0.6677895304183791,0.7322392333957484,0.2280612244897959,0.5741644083107498,0.7639589337175793,0.4672357878672262,0.3404529157601201,0.2612759918553711,0.2106098851885025,0.1536342952939767
0.0832130336151783,0.4388105223027067,0.6650272855891666,0.7446855380548518,0.2259353741496598,0.566305329719964,0.7591858789625361,0.4649942769935139,0.338706217632458,0.2589621768371691,0.2064164156013354,0.147467369177344
0.0918746133223345,0.444052611513534,0.663073502661187,0.7369754378235488,0.2306972789115646,0.567479674796748,0.7717038904899136,0.4713849675696299,0.3428124904238041,0.2621398161288332,0.2091442064978421,0.1518381032211711
0.1080635182511858,0.45548989706443,0.6605807451323856,0.72177552593898,0.2390306122448979,0.5711833785004516,0.7912463976945245,0.4820202212895841,0.3499525020684583,0.2674770161041525,0.2174904323752137,0.1617171596216022
0.1121880800164982,0.4534883720930232,0.6564710638011183,0.7206740830487939,0.24328231292517,0.567479674796748,0.8037644092219022,0.4873140022892026,0.3533233230165784,0.2697908311223546,0.2216024753684553,0.1651299245599329
0.099195710455764,0.433949675943576,0.6511486896180018,0.7388478907368652,0.2412414965986394,0.5546522131887985,0.7980007204610953,0.4831171308660816,0.3508718168724911,0.2669525513666934,0.2176939988600276,0.1587833792360196
0.0909465869251392,0.420320243995425,0.6468368928114263,0.7511840511069501,0.2405612244897959,0.5452574525745257,0.7851224783861672,0.4758679893170546,0.3463671743327307,0.2629419386684766,0.2121977037700513,0.1522572147048257
0.0963085172200453,0.416031261913839,0.640369197601563,0.7507434739508755,0.246938775510204,0.5389340560072268,0.7851224783861672,0.4783479587943533,0.3479606533263875,0.2644227802801259,0.2137448090546372,0.1544126451921925
0.1128067642812951,0.4216545939763629,0.633564643266186,0.7387377464478466,0.2579931972789115,0.537037037037037,0.7900756484149856,0.4862647844334223,0.3521588575981369,0.2692355155179861,0.2200146567869066,0.163992336247156
0.1185811507527325,0.4168890583301562,0.6264232298052954,0.7384073135807908,0.2648809523809524,0.5299909665763324,0.7789985590778098,0.4860263258298359,0.3524959396929489,0.2701918923921762,0.2215210487745297,0.1679439588073284
0.1113631676634357,0.3982081585970263,0.617867008017247,0.7530565040202665,0.2673469387755102,0.5154471544715448,0.7574747838616716,0.4772987409385731,0.3459075169307143,0.2647004380823101,0.2154954808240371,0.1605196982397317
0.1077541761187873,0.3897255051467784,0.6142963012868018,0.7598854499394206,0.2681122448979591,0.5089430894308943,0.7431556195965419,0.4696680656238077,0.3403916281065179,0.2596717467760844,0.2095106261705072,0.1533349299485091
0.115590843472881,0.401639344262295,0.6176648925419389,0.7487608767485406,0.2692176870748299,0.5168925022583559,0.7404538904899136,0.4693342235787867,0.3412496552569485,0.2600419571789967,0.2109763048611676,0.1562687103340917
0.1282738709012167,0.4168890583301562,0.6200902782456377,0.7332305319969159,0.2728741496598639,0.5257452574525746,0.7513508645533141,0.476106447920641,0.3451107774338859,0.2648546924168569,0.2169204462177346,0.1640522093162495
0.1261084759744277,0.4164125047655355,0.6211682274472815,0.7346624077541579,0.271343537414966,0.526196928635953,0.7590057636887608,0.4778710415871805,0.346796187907946,0.2669525513666934,0.2186711179871346,0.1659681475272422
0.1093008867807795,0.4062142584826534,0.6249410496530351,0.7495318867716709,0.2619897959183673,0.5239385727190605,0.7529719020172911,0.4731018695154521,0.3439156681886434,0.2643302276793978,0.2148847813695953,0.1598012214106095
0.1005361930294906,0.4026877621044604,0.6281748972579666,0.7562506884018063,0.2563775510204081,0.5244805781391148,0.7486491354466859,0.4690003815337658,0.3416786688321638,0.2608132288517308,0.2107320250793909,0.1539935337085378
0.1095071148690451,0.415268776210446,0.6312740012126928,0.7441348166097588,0.258078231292517,0.532520325203252,0.7514409221902019,0.4713372758489126,0.3432415039990194,0.2616462022582835,0.2123198436609396,0.1569871871632139
0.1204372035471231,0.4311856652687761,0.6353163107188573,0.7291551933032271,0.2600340136054421,0.5427280939476061,0.7647694524495677,0.4783956505150705,0.3473477767903656,0.2661195779601407,0.218386124908395,0.1648904322835588
0.1198185192823262,0.4391917651544033,0.6413797749781042,0.7248595660315013,0.2559523809523809,0.5505871725383921,0.7717939481268011,0.4817817626859977,0.3492476940520332,0.2680940334423398,0.2215617620714925,0.1670458627709256
0.1064136935450608,0.4384292794510102,0.649531765815536,0.7324595219737856,0.2452380952380952,0.5556458897922313,0.766120317002882,0.4771079740557039,0.3459381607575154,0.2646387363484914,0.217246152593437,0.1596814752724224
0.0951742627345844,0.4302325581395348,0.6511486896180018,0.7431435180085911,0.239625850340136,0.5529358626919603,0.757835014409222,0.470049599389546,0.3414641620445561,0.2603504658480903,0.2108541649702792,0.150221530355646
0.1005361930294906,0.4337590545177276,0.6501381122414606,0.7382971692917721,0.2425170068027211,0.5538392050587173,0.7616174351585014,0.4700019076688287,0.3410351484693409,0.2599494045782687,0.2104877452976141,0.1509400071847682
0.1087853165601154,0.4468166221883338,0.6539109344472142,0.7264015860777618,0.2434523809523809,0.5626016260162602,0.7699927953890491,0.473578786722625,0.3438543805350412,0.2627568334670204,0.2132562494910837,0.1581846485450844
0.1105382553103732,0.4506290507052992,0.6554604864245772,0.723207401696222,0.24328231292517,0.5654019873532069,0.7697226224783863,0.4748664631819916,0.3453865718750958,0.2646695872154008,0.2166354531389951,0.1623757633816309
0.1021860177356155,0.4413839115516583,0.6544499090480361,0.7330102434188787,0.240391156462585,0.5604336043360434,0.7596361671469741,0.469048073254483,0.3416480250053627,0.2616770531251928,0.2126862633336047,0.1559693449886241
0.0943493503815219,0.4349980937857414,0.6551236272990635,0.7409406322282189,0.236734693877551,0.5578139114724481,0.7422550432276657,0.4607020221289584,0.3369288756779947,0.2570802739556981,0.2066199820861493,0.1486049574901209
0.0954836048669828,0.4451963400686236,0.661523950683824,0.734331974887102,0.2332482993197278,0.5669376693766938,0.746307636887608,0.4609404807325448,0.3377869028284253,0.2581292034306164,0.2080042341828841,0.150221530355646
0.0990925964116312,0.4552992756385817,0.6663747220912215,0.7266218746557991,0.2316326530612245,0.5749774164408311,0.7645893371757925,0.4674742464708126,0.3419851071001747,0.261862158326649,0.2135005292728605,0.1569871871632139
0.0918746133223345,0.4501524971406785,0.6674526712928652,0.7334508205749531,0.2279761904761904,0.5732610659439927,0.7759365994236312,0.4706219000381533,0.343425366959826,0.2630961930030234,0.2142740819151534,0.1583043946832714
0.0836254897917096,0.4309950438429279,0.659165936805228,0.7489811653265778,0.2297619047619047,0.5586269196025294,0.7699027377521613,0.4668065623807708,0.3400239021849049,0.2597642993768125,0.2086556469342887,0.1513591186684229
0.0809445246442565,0.4205108654212733,0.6535067034965977,0.756360832690825,0.232312925170068,0.5498644986449864,0.7604466858789626,0.4623235406333461,0.3369595195047957,0.256123897081508,0.2045436039410471,0.144713207999042
0.0888843060424829,0.4271826153259626,0.6531024725459812,0.748320299592466,0.2357993197278911,0.5527551942186089,0.7594560518731989,0.4643742846241893,0.3387368614592591,0.2579440982291602,0.2071492549466655,0.1475272422464375
0.1078572901629202,0.4436713686618375,0.6524287542949538,0.7287146161471528,0.244047619047619,0.5601626016260163,0.7659402017291067,0.4724341854254102,0.3441301749762511,0.2635281051397545,0.2154954808240371,0.1580050293378038
0.1109507114869045,0.4443385436523064,0.650811830492488,0.7266218746557991,0.2463435374149659,0.5593495934959349,0.7686419308357348,0.4753910721098817,0.3456010786627034,0.2652557536866786,0.217246152593437,0.1608190635851993
0.1014642194266859,0.431090354555852,0.6476453547126592,0.7393986121819583,0.2443877551020408,0.5509485094850949,0.7551332853025937,0.4700972911102633,0.3423528330217878,0.2619238600604677,0.2129305431153814,0.1539935337085378
0.0978552278820375,0.4254670224933282,0.6460284309101934,0.7445753937658333,0.2439625850340135,0.5472448057813911,0.7390129682997119,0.4652327355971003,0.3395642447828885,0.2593323872400814,0.2099991857340607,0.1490240689737755
0.1110538255310373,0.4306138009912313,0.6410429158525903,0.7344421191761207,0.2525510204081632,0.5463414634146341,0.7407240634005764,0.4685234643265929,0.3420463947537769,0.2620472635281052,0.2142740819151534,0.1538737875703508
0.1290987832542792,0.4356652687762103,0.6328235531900558,0.7219958145170173,0.2651360544217687,0.5431797651309846,0.7516210374639769,0.4776325829835941,0.3477461465387798,0.2677546739063368,0.2213174822897158,0.1671656089091126
0.1295112394308104,0.4315669081204726,0.629657077410227,0.724088556008371,0.2673469387755102,0.5391147244805781,0.7542327089337176,0.4802079359023274,0.3493702693592376,0.2692663663848955,0.2230681540591156,0.1705783738474434
0.115590843472881,0.4166984369043079,0.6281748972579666,0.7401696222050886,0.2625850340136054,0.5310749774164408,0.7447766570605188,0.4723864937046929,0.3457542977967089,0.2651632010859505,0.2176532855630649,0.1617171596216022
0.1097133429573107,0.4089782691574532,0.6266927171057064,0.747769578147373,0.2610544217687074,0.5263775971093044,0.7386527377521613,0.4688573063716139,0.3427205589434008,0.2625408773986549,0.2136633824607116,0.1551909950904083
0.1176531243555372,0.4204155547083492,0.6295223337600215,0.7368652935345302,0.2625850340136054,0.5337850045167117,0.7423451008645534,0.4726249523082793,0.3453559280482947,0.2643302276793978,0.215902613793665,0.1592623637887678
0.1284800989894823,0.4354746473503621,0.6330930404904668,0.7224363916730917,0.2647959183673469,0.5432700993676604,0.7538724783861672,0.4787771842808089,0.3494622008396408,0.2689887085827112,0.222620307792525,0.1684828164291701
0.1293050113425448,0.4378574151734654,0.6342383615172134,0.7205639387597752,0.2643707482993197,0.54516711833785,0.7604466858789626,0.4797310186951545,0.3508105292188889,0.2706238045289073,0.2251445322042179,0.1715363429529397
0.1178593524438028,0.4267060617613419,0.633834130566597,0.7331203877078972,0.2599489795918367,0.5396567299006324,0.7502701729106629,0.4726249523082793,0.3453865718750958,0.2652557536866786,0.2187118312840973,0.163992336247156
0.1090946586925139,0.4214639725505146,0.6357879134945765,0.7408304879392003,0.255017006802721,0.5384823848238482,0.7383825648414986,0.4658527279664251,0.3408819293353354,0.2605972727833652,0.2136633824607116,0.1553706142976889
0.1124974221488966,0.4329965688143347,0.6417840059287205,0.732349377684767,0.2526360544217687,0.547877145438121,0.7460374639769453,0.46752193819153,0.3412802990837496,0.2613685444560992,0.2137855223516,0.1547718836067536
0.1190967209733965,0.4470072436141821,0.6473084955871454,0.7206740830487939,0.2519557823129251,0.5582655826558265,0.7635086455331412,0.4742464708126669,0.3455091471823002,0.2650089467514037,0.2184675515023206,0.1611184289306669
0.1159001856052794,0.4509149828440716,0.6522266388196455,0.7201233616037008,0.2474489795918367,0.5634146341463415,0.7722442363112392,0.4777279664250287,0.3473171329635645,0.2658110692910471,0.219729663708167,0.1625553825889115
0.1009486492060218,0.4368089973313,0.6520245233443374,0.7363145720894372,0.2414965986394557,0.5565492321589882,0.7708033141210375,0.4739603204883632,0.343793092881439,0.2611834392546431,0.2137040957576744,0.1532151838103221
0.0890905341307486,0.4258482653450247,0.6519571515192346,0.7489811653265778,0.2365646258503401,0.5514001806684734,0.767921469740634,0.4682373140022892,0.3395948886096896,0.2571728265564263,0.206864261867926,0.1442342234462938
0.0912559290575376,0.4298513152878383,0.6534393316714949,0.7454565480779821,0.2365646258503401,0.5542908762420957,0.7749459654178674,0.4691911484166349,0.3395029571292863,0.2575738878262479,0.2070271150557771,0.1456113040354448
0.100845535161889,0.4411932901258101,0.6551909991241662,0.7338913977310276,0.2394557823129251,0.5607949412827462,0.7832312680115274,0.4740557039297978,0.3433947231330249,0.2615845005244647,0.2117091442064978,0.1532750568794156
0.1004330789853578,0.4494853221502096,0.6613218352085158,0.7292653375922459,0.2353741496598639,0.5688346883468834,0.7755763688760807,0.4718141930560854,0.344436613244262,0.2637749120750293,0.214925494666558,0.1571668063704945
0.0875438234687564,0.4450057186427753,0.6665768375665296,0.7387377464478466,0.2267857142857142,0.570189701897019,0.7610770893371759,0.4637066005341473,0.3407899978549321,0.2605355710495465,0.210894878267242,0.1512393725302359
0.0824912353062487,0.4364277544796034,0.6638145927373172,0.7463377023901311,0.2263605442176871,0.5643179765130985,0.7567543227665707,0.4597481877146128,0.3368369441975914,0.256555809218239,0.2069864017588144,0.1453718117590707
0.0897092183955454,0.4356652687762103,0.6584922185542006,0.7429232294305539,0.2327380952380952,0.5604336043360434,0.7692723342939481,0.4661388782907288,0.3389513682468667,0.2582217560313445,0.2088592134191026,0.1472278769009699
0.0965147453083109,0.4382386580251619,0.6559320892002964,0.7378565921356978,0.2371598639455782,0.5598915989159892,0.7844920749279539,0.473769553605494,0.3442221064566543,0.2622323687295613,0.2139483755394511,0.1539935337085378
0.1004330789853578,0.4381433473122378,0.6532372161961867,0.7358739949333626,0.2404761904761904,0.5580849141824752,0.7882744956772335,0.4767264402899657,0.3462139551987252,0.2639600172764855,0.2161876068724045,0.1574062986468686
0.0936275520725922,0.4236561189477696,0.6475106110624537,0.747769578147373,0.2413265306122448,0.5473351400180668,0.7699927953890491,0.4702880579931324,0.3424447645021911,0.2601653606466342,0.2111391580490187,0.1516584840138905
0.0955867189111157,0.4156500190621425,0.6405713130768712,0.7514043396849873,0.2464285714285714,0.5388437217705511,0.7544128242074929,0.4642789011827546,0.3396561762632918,0.2568026161535139,0.2076785278071818,0.1473476230391569
0.110125799133842,0.4216545939763629,0.6353836825439602,0.7401696222050886,0.25578231292517,0.5383017163504968,0.7489193083573488,0.4672834795879436,0.3421996138877823,0.2593015363731721,0.2109763048611676,0.151718357082984
0.1266240461950917,0.4291841402973694,0.6298591928855353,0.7269523075228549,0.2660714285714285,0.5381210478771454,0.7522514409221902,0.4738172453262114,0.3469494070419515,0.2637132103412106,0.2169204462177346,0.1602802059633576
0.1296143534749433,0.4232748760960731,0.6237283568011857,0.7288247604361713,0.2710884353741496,0.5311653116531165,0.7482889048991356,0.4738649370469286,0.3469800508687525,0.2646695872154008,0.2178975653448416,0.1632139863489402
0.1205403175912559,0.4069767441860464,0.6181364953176581,0.7431435180085911,0.2709183673469387,0.5197831978319783,0.7335194524495677,0.4672834795879436,0.3422915453681856,0.2607206762510026,0.2123198436609396,0.1558495988504371
0.1152815013404825,0.394491040792985,0.6127467493094387,0.7530565040202665,0.2721938775510204,0.5102077687443541,0.7205511527377522,0.4606543304082411,0.3379707657892318,0.2563090022829642,0.207434248025405,0.1501017842174589
0.1222932563415137,0.3981128478841021,0.6107255945563566,0.7472188567022799,0.2763605442176871,0.510569105691057,0.7273054755043228,0.4648512018313621,0.3408206416817332,0.2597951502437219,0.2117498575034606,0.1556699796431565
0.1377603629614353,0.4078345406023636,0.6074917469514249,0.7334508205749531,0.2846938775510204,0.5130081300813009,0.7410842939481269,0.4731018695154521,0.3459994484111175,0.2656876658234097,0.2189561110658741,0.1659082744581487
0.1359043101670447,0.4050705299275638,0.606683285050192,0.7359841392223813,0.2844387755102041,0.5112014453477868,0.7476585014409223,0.4759156810377718,0.3470413385223547,0.2661504288270501,0.2198518035990554,0.166746497425458
0.1226025984739121,0.398017537171178,0.6104561072559456,0.7471087124132614,0.2766156462585034,0.5102981029810297,0.7394632564841499,0.4696203739030904,0.3430882848650139,0.2623249213302894,0.2147219281817441,0.158603760028739
0.1159001856052794,0.403069004956157,0.6184059826180691,0.7478797224363916,0.2687925170068027,0.5180668473351401,0.733249279538905,0.4645650515070584,0.3413109429105507,0.2605972727833652,0.2120348505822001,0.1547718836067536
0.1239430810476386,0.4212733511246663,0.6259516270295763,0.7330102434188787,0.2674319727891156,0.5317073170731708,0.7480187319884728,0.4723864937046929,0.3455397910091012,0.2645461837477633,0.2171240127025486,0.1615375404143216
0.1402351000206227,0.4422417079679756,0.6302634238361516,0.7121929727943606,0.271343537414966,0.5446251129177958,0.7669308357348703,0.4840709652804273,0.3530168847485674,0.2720737952736472,0.226080938034362,0.1746497425458029
0.1375541348731697,0.4456728936332443,0.6343057333423162,0.7116422513492675,0.267687074829932,0.5489611562782294,0.7753061959654179,0.4873616940099199,0.3553458155854503,0.2744493120256679,0.2288901555247943,0.1777032690695725
0.1211590018560528,0.4342356080823484,0.6370006063464259,0.7269523075228549,0.2592687074829932,0.5453477868112014,0.7703530259365996,0.4814479206409767,0.3512701866209052,0.2702844449929044,0.2233124338408924,0.1695605316728535
0.1109507114869045,0.4252764010674799,0.6373374654719396,0.7376363035576605,0.2548469387755102,0.541282746160795,0.7648595100864555,0.4751526135062953,0.3476235712315754,0.2661504288270501,0.2180604185326927,0.1611783019997605
0.1156939575170138,0.433282500953107,0.6398975948258437,0.7304769247714505,0.2551870748299319,0.5467931345980126,0.7688220461095101,0.4749141549027089,0.3478380780191831,0.265625964089591,0.2186304046901718,0.1608789366542929
0.1234275108269746,0.4439573008006099,0.6423903523546453,0.7201233616037008,0.2568027210884354,0.5535682023486901,0.7827809798270894,0.4820679130103014,0.3505653786044801,0.2680940334423398,0.2220910349320087,0.1666866243563645
0.1146628170756857,0.4410026686999618,0.6459610590850906,0.7265117303667804,0.2509353741496598,0.5544715447154471,0.7927773775216139,0.4830217474246471,0.3495847761468452,0.2675387178379713,0.2214803354775669,0.1645910669380912
0.0908434728810064,0.4309950438429279,0.6545846526982415,0.7450159709219076,0.2357142857142857,0.5555555555555556,0.7831412103746399,0.4688573063716139,0.3414948058713572,0.2597951502437219,0.2113427245338327,0.1501017842174589
0.0720767168488348,0.4398589401448722,0.6730445327763929,0.7499724639277453,0.2163265306122448,0.5720867208672087,0.7698126801152738,0.4534528805799313,0.3351208898967303,0.2547664589374962,0.2038107645957169,0.1376481858460064
0.0586718911115694,0.4795081967213114,0.7098295492824901,0.7342218305980834,0.1875850340136054,0.6155374887082204,0.7798991354466859,0.4457745135444487,0.3357031226059511,0.2586536681680755,0.2058871427408191,0.1353131361513591
0.0518663641988038,0.5188715211589782,0.7421680253318063,0.7150567243088445,0.1643707482993197,0.6559168925022584,0.7910662824207494,0.4416730255627623,0.3405142034137223,0.2678472265070649,0.2138262356485628,0.1384265357442222
0.0641369354506083,0.5281166603126191,0.7406184733544431,0.7031611410948342,0.1704081632653061,0.6592592592592592,0.8125000000000001,0.467712705074399,0.3680017160543009,0.2996236194237058,0.2425291100073283,0.1618369057597892
0.1218808001649824,0.5291650781547845,0.7036313413730376,0.6717700187245291,0.2175170068027211,0.6349593495934959,0.8484329971181557,0.5417779473483403,0.4424355713541507,0.3800826803233171,0.3183372689520397,0.2309903005628068
0.2370591874613322,0.5148684712161646,0.6182712389678636,0.6185703271285383,0.3188775510204081,0.5709123757904245,0.8817543227665706,0.6433613124761541,0.554071032390525,0.5054606034429568,0.4373829492712319,0.345766974015088
0.4076098164570014,0.5113419748379717,0.5043454827191268,0.5294635973124793,0.4610544217687074,0.4929539295392954,0.8623018731988473,0.7488077069820679,0.6903441301749763,0.6617510952057754,0.5854979236218548,0.4977248233744462
0.6072386058981233,0.5473694243232938,0.3993801792090547,0.4020266549179424,0.6096088435374148,0.4396567299006323,0.800792507204611,0.8535864173979397,0.8328685686268502,0.8215277349293516,0.7409412914257797,0.6681235780146089
0.780160857908847,0.5980747235989324,0.3221720676413124,0.2803172155523735,0.7296768707482992,0.4118337850045168,0.6992975504322767,0.9074303700877528,0.9093862041491744,0.912784599247239,0.8473251363895447,0.804813794755119
0.918849247267478,0.6240945482272207,0.2500168429562756,0.191320630025333,0.8323979591836734,0.375880758807588,0.5243155619596542,0.8896890499809234,0.9135231207673216,0.920065403837848,0.891661916782021,0.898455274817387
0.9856671478655392,0.6044605413648493,0.1924813043185339,0.1669787421522194,0.8962585034013605,0.328003613369467,0.3947226224783862,0.8517264402899656,0.8952287561670703,0.8855124328993645,0.8798143473658495,0.9249790444258172
0.9297793359455558,0.5407929851315287,0.1839924543555884,0.2335058927194624,0.8785714285714286,0.2921409214092141,0.3475324207492796,0.7461846623426173,0.7930928814390342,0.7797556611340779,0.7878430095269114,0.8500179619207281
0.7375747576819962,0.4402401829965687,0.2385636326888095,0.3943165546866394,0.7648809523809522,0.281029810298103,0.2414445244956772,0.4738172453262114,0.5191064260104803,0.5372061454926884,0.5749531797084928,0.6543527721230991
0.4682408744070942,0.416031261913839,0.3973590244559725,0.5521533208503139,0.553656462585034,0.3760614272809395,0.139229106628242,0.1867130866081648,0.2121165691171513,0.2497994693650891,0.3041690416089895,0.3801939887438629
0.287894411218808,0.4228936332443766,0.5201104897931684,0.6445643793369313,0.4017857142857142,0.4615176151761517,0.1048270893371758,0.0615223197252957,0.0635552967854625,0.0899611279076942,0.1337838938197215,0.1887199137827805
0.2494328727572695,0.4043080442241707,0.5320353028363538,0.6758453574182178,0.3784013605442176,0.4607949412827461,0.1861491354466859,0.1392598244944678,0.1121564060919927,0.1122354538162522,0.1303232635778845,0.159861094479703
0.2287069498865745,0.4214639725505146,0.5577039682004985,0.6769468003084039,0.353656462585034,0.4860885275519422,0.3665345821325648,0.283479587943533,0.2161002666012931,0.1862158326648979,0.179586352902858,0.1821937492515866
0.1946793153227469,0.4268966831871901,0.5838442363403624,0.6920365679039542,0.3231292517006802,0.5061427280939477,0.5365634005763689,0.3921690194582221,0.2889712867342874,0.2331091503671253,0.2066199820861493,0.1821937492515866
0.1717879975252629,0.4166984369043079,0.5915919962271778,0.7101002313030069,0.3087585034013605,0.5065040650406504,0.6296829971181557,0.4465375810759251,0.3255293721079889,0.2527303017214784,0.2138669489455256,0.1738713926475871
0.1541554959785522,0.3996378192908882,0.5909856498012531,0.7293754818812643,0.3019557823129251,0.4980126467931347,0.6648955331412104,0.4585082029759634,0.3343547942267031,0.2539643363978528,0.2107320250793909,0.16423182852353
0.1362136522994431,0.3957300800609988,0.5999461025399178,0.7412710650952747,0.2888605442176871,0.5022583559168925,0.6935338616714698,0.4592235787867226,0.3345999448411118,0.2505707410378232,0.204950736910675,0.154352772123099
0.1336358011961229,0.4046892870758672,0.607963349727144,0.7374160149796233,0.2827380952380952,0.5118337850045167,0.7281159942363113,0.4673788630293781,0.3382465602304416,0.2506015919047325,0.2034443449230518,0.1521973416357322
0.1320890905341307,0.4178421654593975,0.6182712389678636,0.7305870690604692,0.275595238095238,0.5249322493224933,0.7603566282420751,0.478300267073636,0.3436398737474336,0.2532856173258468,0.2047064571288982,0.1537540414321637
0.1209527737677871,0.4254670224933282,0.6309371420871791,0.7322392333957484,0.2630102040816326,0.537037037037037,0.7755763688760807,0.483164822586799,0.3460300922379187,0.2538717837971247,0.2040957576744564,0.1505807687702071
0.1025984739121468,0.4220358368280594,0.6405039412517685,0.7440246723207401,0.2494047619047619,0.5418247515808491,0.774585734870317,0.4774895078214421,0.3417093126589648,0.2484111803541679,0.196685937627229,0.1388456472278768
0.0843472881006393,0.4121235226839496,0.6454220844842686,0.7594448727833462,0.2387755102040816,0.5404697380307136,0.7770172910662825,0.4726249523082793,0.3372659577728067,0.243104831245758,0.188624704828597,0.1272302718237336
0.0845535161889049,0.4121235226839496,0.6452873408340631,0.7593347284943276,0.2389455782312924,0.5403794037940379,0.7976404899135447,0.4817817626859977,0.3406674225477278,0.2444314185228605,0.1886654181255598,0.1278290025146689
0.087750051557022,0.4123141441097979,0.6433335579060837,0.7574622755810111,0.2414965986394557,0.5392050587172539,0.8190742074927955,0.4897462800457841,0.3471026261759569,0.2472696982785217,0.1921667616643596,0.13243922883487
0.081769436997319,0.4039268013724741,0.6413124031530014,0.7655028086793699,0.2403061224489796,0.5338753387533876,0.8306916426512968,0.4927985501716901,0.3473477767903656,0.246189917936694,0.1904568031919224,0.1299245599329421
0.0659929882449989,0.3855318337781166,0.6386175301488917,0.7846679149686089,0.2354591836734693,0.5233062330623306,0.8242074927953892,0.487552460892789,0.3425673398093954,0.240791016227556,0.1829248432538066,0.1184888037360794
0.0583625489791709,0.3774304231795653,0.6378090682476588,0.7933693138010793,0.2329081632653061,0.5188798554652213,0.8287103746397695,0.4851678748569249,0.3410351484693409,0.2381686925402604,0.1787313736666395,0.1120225122739791
0.0642400494947411,0.3857224552039649,0.6398975948258437,0.7854389249917392,0.2339285714285714,0.5242999096657633,0.8466318443804035,0.4912247233880198,0.3440688873226489,0.240019744554822,0.1804006188421138,0.1151359118668423
0.0713549185399051,0.3951582157834539,0.6419861214040288,0.7761868047141754,0.2355442176870748,0.5301716350496838,0.8548270893371759,0.496470812666921,0.346489749639935,0.2429814277781206,0.1837798224900252,0.1211830918452879
0.0681583831717879,0.3930613800991231,0.6425250960048507,0.7790505562286595,0.2339285714285714,0.529539295392954,0.8369056195965417,0.4908431896222816,0.3439769558422456,0.2411612266304683,0.182273430502402,0.1192671536342952
0.0613528562590224,0.3868661837590544,0.6425924678299535,0.786320079303888,0.2311224489795918,0.5265582655826558,0.8032240634005764,0.4787294925600915,0.3382772040572427,0.2363176405256988,0.1764107157397606,0.1107651778230152
0.0614559703031552,0.3855318337781166,0.6415818904534124,0.7870910893270183,0.2317176870748299,0.525293586269196,0.7876440922190202,0.473244944677604,0.3349063831091227,0.2332325538347628,0.1722579594495562,0.1046581247754759
0.0726954011136316,0.3933473122378954,0.6397628511756382,0.7765172375812314,0.2375,0.5277326106594399,0.7930475504322767,0.4793971766501335,0.3382772040572427,0.2359782809896958,0.1760442960670954,0.1096874625793318
0.0818725510414518,0.3972550514677849,0.636461631745604,0.7693578587950215,0.2434523809523809,0.5273712737127371,0.8019632564841499,0.4864078595955742,0.3428124904238041,0.2397729376195471,0.1801563390603371,0.1175907076996766
0.0780573314085378,0.3826725123903925,0.6287812436838913,0.7798215662517898,0.2466836734693877,0.5153568202348691,0.8031340057636889,0.4867893933613125,0.3430576410382129,0.2395569815511816,0.1807670385147789,0.1187282960124535
0.0692926376572489,0.3617041555470834,0.6196186754699184,0.7966736424716379,0.2488095238095237,0.4992773261065943,0.7919668587896254,0.4808756199923693,0.3384610670180492,0.2345591411118652,0.1752300301278397,0.1108250508921087
0.0680552691276551,0.3512199771254288,0.6130162366098497,0.8033924441017734,0.2524659863945578,0.4898825654923215,0.7880043227665707,0.4812571537581076,0.3371740262924034,0.2323378786943913,0.1725836658252585,0.1081906358519937
0.0793978139822643,0.3536027449485321,0.6072896314761166,0.7959026324485075,0.2607993197278911,0.4871725383920506,0.7979106628242075,0.4867417016405951,0.3401464774921093,0.2351453075831431,0.1758000162853187,0.1143575619686265
0.0866157970715611,0.3547464735036217,0.6033820656201575,0.7913867165987444,0.2662414965986394,0.4850948509485094,0.8087175792507205,0.4926077832888211,0.3431495725186161,0.2372431665329796,0.1794642130119697,0.1203448688779786
0.0824912353062487,0.34778879146016,0.6011587953917672,0.7976649410728054,0.2659863945578231,0.4803071364046974,0.8071865994236312,0.4928462418924075,0.342781846597003,0.2361942370580613,0.1781206742121976,0.1194467728415758
0.0729016292018972,0.3359702630575676,0.5990702688135822,0.8095605242868157,0.2632653061224489,0.4733514001806684,0.796649855907781,0.4886493704692866,0.3381852725768394,0.2311346948849263,0.1719729663708167,0.1113040354448569
0.0672303567745927,0.3288219595882576,0.59779020413663,0.8167199030730256,0.261734693877551,0.4690153568202349,0.7924171469740634,0.4869801602441816,0.3355805472987467,0.2281421607947183,0.1681052031593518,0.1054364746736917
0.0776448752320066,0.3412123522683949,0.5996766152395068,0.8039431655468664,0.2648809523809524,0.4761517615176151,0.8069164265129682,0.4931800839374285,0.3391045873808722,0.231196396618745,0.1718915397768911,0.1113639085139504
0.0900185605279439,0.350648112847884,0.5982618069123492,0.7919374380438374,0.2708333333333333,0.4797651309846432,0.8233069164265131,0.5032907287294925,0.3442527502834554,0.2349602023816869,0.1766957088185001,0.1192671536342952
0.0902247886162095,0.3464544414792222,0.5950953311325204,0.7942504681132283,0.2729591836734694,0.475609756097561,0.8273595100864555,0.5062476154139641,0.3444059694174609,0.2346516937125933,0.1766957088185001,0.1197461381870434
0.0797071561146628,0.3432138772398017,0.5997439870646096,0.8017402797664941,0.2657312925170068,0.4771454381210479,0.8215958213256483,0.5023368943151469,0.3407899978549321,0.2302708706114642,0.1714029802133377,0.1123218776194467
0.0750670241286863,0.3431185665268775,0.6027083473691301,0.8042735984139222,0.2619047619047619,0.4791327913279132,0.8253782420749279,0.5023845860358641,0.3388287929396623,0.2270932313198001,0.1668430909535053,0.1068135552628427
0.0850690864095689,0.3583682805947388,0.606952772350603,0.7901751294195396,0.2633503401360544,0.489159891598916,0.8435698847262249,0.5108260206028233,0.3430269972114118,0.2294378972049115,0.1695708818500122,0.1116034007903245
0.0931119818519282,0.3720930232558138,0.6113319409822812,0.7778389690494547,0.263860544217687,0.4986449864498645,0.8660842939481269,0.5205074399084318,0.347500995924371,0.2324921330289381,0.1733165051705887,0.1162735001796192
0.0866157970715611,0.3658025162028211,0.6111971973320758,0.7849983478356647,0.2613095238095238,0.4955736224028906,0.8774315561959655,0.5237027851964899,0.3465816811203383,0.2297155550070957,0.1705072876801563,0.1139384504849718
0.0683646112600536,0.3510293556995806,0.612679377484336,0.8032822998127546,0.252891156462585,0.4896115627822944,0.8781520172910663,0.5197920640976726,0.3414948058713572,0.2224656012833961,0.1615503623483429,0.1027421865644832
0.0594968034646318,0.3479794128860083,0.6163174560398841,0.8097808128648528,0.2468537414965986,0.4905149051490515,0.8846361671469741,0.5200782144219764,0.3390739435540711,0.2174677608440797,0.1543848220828922,0.0944198299604837
0.0653743039802021,0.3582729698818147,0.6197534191201238,0.8006388368763079,0.2471938775510204,0.4977416440831075,0.9054394812680115,0.5297119420068677,0.3427205589434008,0.218516690318998,0.1564204869310316,0.0974134834151598
0.0740358836873582,0.3635150590926419,0.617867008017247,0.7930388809340235,0.2519557823129251,0.4989159891598916,0.93524855907781,0.5442579168256391,0.3492476940520332,0.2224964521503054,0.161143229378715,0.1043587594300083
0.066508558465663,0.3514105985512771,0.6141615576365963,0.8040533098358849,0.2511904761904762,0.4906955736224028,0.9547010086455332,0.551650133536818,0.3507798853920877,0.2207071018695625,0.1594332709062779,0.1016644713207998
0.0538255310373272,0.335589020205871,0.6112645691571784,0.8199140874545654,0.2477891156462584,0.48130081300813,0.9412824207492796,0.544400991987791,0.3444059694174609,0.213210341210588,0.1508834785440924,0.0929828763022392
0.0491853990513507,0.3291078917270301,0.6097150171798154,0.8261923119286264,0.2467687074829931,0.4772357723577235,0.9235410662824208,0.538868752384586,0.339748107743695,0.2079039921021781,0.1451021903753765,0.0865165848401389
0.0656836461126005,0.3426420129622569,0.608502324327966,0.8095605242868157,0.2543367346938775,0.4827461607949412,0.923270893371758,0.5444486837085082,0.3425060521557933,0.2100944036527426,0.1492549466655809,0.0941204646150161
0.0866157970715611,0.3618947769729317,0.6084349525028633,0.787201233616037,0.2630102040816326,0.491869918699187,0.9251621037463978,0.5538916444105304,0.3473784206171666,0.214752884556056,0.1562983470401432,0.1056160938809723
0.091049700969272,0.3608463591307662,0.6048642457724179,0.7854389249917392,0.2671768707482993,0.4889792231255645,0.9097622478386168,0.555847004959939,0.3481138724603929,0.2143518232862344,0.1567869066036967,0.1071129206083103
0.0866157970715611,0.34778879146016,0.5985312942127602,0.795462055292433,0.2693027210884353,0.4785004516711833,0.8849063400576369,0.550123998473865,0.3458462292771121,0.2117912013327575,0.1542626821920039,0.1044186324991019
0.0908434728810064,0.3437857415173465,0.5928720609041298,0.795462055292433,0.2745748299319727,0.47289972899729,0.8702269452449568,0.5501716901945822,0.3472864891367634,0.2132720429444067,0.1563390603371061,0.1072326667464974
0.1160032996494122,0.357796416317194,0.5863369938691638,0.7739839189338032,0.2891156462585034,0.4751580849141825,0.8724783861671471,0.5598531095001908,0.3555296785462569,0.2226507064848522,0.1669652308443937,0.1216022033289426
0.1317797484017323,0.3687571483034693,0.5838442363403624,0.7592245842053089,0.2971938775510204,0.4785907859078591,0.8750900576368876,0.5672453262113697,0.3644776759721754,0.233510211636947,0.1797084927937464,0.1362112321877619
0.1371416786966384,0.3676134197483797,0.5794650677086842,0.7570216984249366,0.302125850340136,0.4751580849141825,0.8583393371757925,0.56443151468905,0.3684307296295162,0.2403899549577343,0.1874847325136389,0.1442940965153873
0.1348731697257166,0.3571292413267251,0.5734689752745401,0.7642912215001652,0.3050170068027211,0.4662149954832881,0.8354646974063401,0.5542731781762686,0.3678178530934943,0.2439995063861295,0.1909046494585131,0.1451921925517902
0.1407506702412868,0.3583682805947388,0.570639358620225,0.7604361713845137,0.3091836734693877,0.4648599819331526,0.8186239193083574,0.5481209462037391,0.36938068826035,0.2505398901709139,0.1975816301604103,0.1509998802538618
0.1590018560527944,0.3703774304231795,0.5671360237148825,0.7436942394536842,0.3189625850340136,0.4682023486901536,0.8187139769452451,0.5506962991224723,0.3766432752122085,0.2627876843339298,0.2114648644247211,0.1672853550472997
0.1710661992163333,0.3790507052992755,0.5653843562622112,0.7322392333957484,0.325,0.4711833785004516,0.8259185878962537,0.5552270125906144,0.383538136242454,0.2745727154933054,0.2247781125315528,0.1818345108370255
0.1654980408331614,0.3794319481509721,0.5692919221181701,0.7349928406212137,0.3203231292517006,0.4739837398373984,0.8146613832853027,0.5473101869515452,0.3826188214384213,0.2780897143209724,0.229338001791385,0.1836307029098311
0.1530212414930913,0.3700914982844071,0.570908845920636,0.7471087124132614,0.3141156462585034,0.4705510388437218,0.7931376080691643,0.5317149942769935,0.3755094536205681,0.2752514345653113,0.2255923784708085,0.1766255538258891
0.1516807589193648,0.3706633625619519,0.5721215387724853,0.7474391452803172,0.3128401360544217,0.4717253839205059,0.7831412103746399,0.5219381915299505,0.3708822357736034,0.2745110137594867,0.2248595391254783,0.1728535504729972
0.1643637863477005,0.3989706443004193,0.5838442363403624,0.7243088445864082,0.3106292517006802,0.4929539295392954,0.7844020172910664,0.5207458985120182,0.3739466184537126,0.2806811871413587,0.23145509323345,0.1810561609388097
0.1713755413487317,0.4287075867327487,0.6002829616654315,0.7033814296728713,0.3031462585034013,0.5180668473351401,0.7889949567723343,0.5225104921785578,0.3781754665522631,0.287221570926143,0.2391499063594169,0.191533948030176
0.1582800577438647,0.4349027830728173,0.613218352085158,0.7067959026324485,0.2895408163265305,0.5297199638663053,0.7951188760806917,0.5190766882869134,0.3776545214966445,0.2886407108039736,0.2404120185652634,0.1909950904083343
0.1395133017116931,0.4272779260388867,0.6200902782456377,0.7212248044938869,0.2774659863945578,0.5306233062330623,0.7854827089337176,0.509252193819153,0.3711580302148132,0.2837971246992041,0.2334907580815894,0.1811160340079032
0.1254897917096308,0.4226077011056042,0.6259516270295763,0.7314682233726181,0.2680272108843537,0.5323396567299006,0.7875540345821326,0.5029568866844716,0.3674501271718813,0.280280125871537,0.2285644491490921,0.1745898694767093
0.1304392658280057,0.4337590545177276,0.6306002829616655,0.722326247384073,0.2670918367346938,0.5408310749774164,0.8035842939481269,0.5072968332697444,0.3696871265283609,0.2822854322206454,0.2315772331243384,0.1774637767931984
0.1380697050938337,0.4460541364849408,0.634373105167419,0.711201674193193,0.2678571428571428,0.5491418247515808,0.8208753602305476,0.5146413582602061,0.3729353721692766,0.2853088171777627,0.2356485628206172,0.1818345108370255
0.1299236956073417,0.4390964544414791,0.6347099642929326,0.7194624958695891,0.2642857142857142,0.5460704607046071,0.8279899135446687,0.5142121327737504,0.3714031808292219,0.2836428703646573,0.2342235974269196,0.1787809843132558
0.1132192204578263,0.4248951582157834,0.6355184261941657,0.7366450049564929,0.2568877551020408,0.5399277326106594,0.8224963976945245,0.508584509729111,0.3672662642110747,0.2789226877275251,0.227994462991613,0.1684828164291701
0.1082697463394514,0.4229889439573007,0.6375395809472478,0.7403899107831259,0.2535714285714285,0.5403794037940379,0.827449567723343,0.5068199160625716,0.3670824012502682,0.2775652495835133,0.2253480986890318,0.1641719554544365
0.1188904928851309,0.4356652687762103,0.6394933638752274,0.7273928846789294,0.2568027210884354,0.5476061427280939,0.8333033141210376,0.5107783288821061,0.3704532221983881,0.2808662923428149,0.2285237358521293,0.1698000239492276
0.1319859764899979,0.4466260007624856,0.6386849019739944,0.714065425707677,0.2626700680272109,0.5523035230352303,0.8292507204610953,0.5099675696299123,0.3728127968620722,0.284907755907941,0.2337757511603289,0.1781223805532271
0.1277583006805527,0.4414792222645824,0.6378090682476588,0.7193523515805705,0.2614795918367347,0.5492321589882566,0.8153818443804035,0.5069152995040062,0.3718628382312384,0.2854322206454002,0.2352821431479521,0.1793198419350976
0.1148690451639513,0.426038886770873,0.6352489388937547,0.7351029849102323,0.2578231292517006,0.5402890695573622,0.7963796829971183,0.5008584509729112,0.367021113596666,0.2819152218177331,0.2297858480579757,0.1709376122620045
0.1129098783254279,0.4230842546702249,0.6345078488176245,0.7378565921356978,0.2574829931972789,0.5383920505871725,0.7831412103746399,0.4955646699732927,0.36432445683817,0.2796014067995311,0.2265694975979154,0.1659681475272422
0.1254897917096308,0.4381433473122378,0.6368658626962204,0.7224363916730917,0.2611394557823129,0.5470641373080397,0.7840417867435159,0.5012876764593667,0.3689210308583336,0.2838279755661134,0.232228645875743,0.1735720273021194
0.1374510208290369,0.4468166221883338,0.6352489388937547,0.7110915299041745,0.2670918367346938,0.5500451671183378,0.7878242074927955,0.5072491415490271,0.3730579474764809,0.2884864564694268,0.2384984936080123,0.1819542569752125
0.1352856259022478,0.4406214258482652,0.6322845785892339,0.7157175900429563,0.2681122448979591,0.54516711833785,0.7818804034582133,0.5064860740175506,0.3733950295712929,0.2890726229407047,0.2392313329533425,0.1833313375643635
0.1269333883274901,0.4226077011056042,0.6250084214781378,0.7305870690604692,0.2692176870748299,0.5317073170731708,0.7650396253602306,0.498998473864937,0.3684920172831183,0.2842598877028444,0.2331650517058871,0.1750688540294575
0.1236337389152402,0.413076629813191,0.6204271373711514,0.7379667364247163,0.2707482993197279,0.5242095754290876,0.7579250720461096,0.4952785196489889,0.3649373333741918,0.2805577836737213,0.227994462991613,0.1687821817746377
0.1326046607547948,0.4153640869233701,0.6161827123896786,0.7317986562396739,0.277125850340136,0.5224028906955737,0.7681916426512968,0.498998473864937,0.3672356203842736,0.2827790460911952,0.2312108134516733,0.1734522811639324
0.1424004949474118,0.4144109797941288,0.6091086707538907,0.7271725961008921,0.2856292517006802,0.517163504968383,0.7793587896253603,0.5051030141167493,0.371096742561211,0.2871598691923243,0.2365442553537985,0.1828523530116153
0.1370385646525056,0.4035455585207776,0.6049316175975207,0.7362044278004185,0.2860544217687075,0.5092140921409214,0.777377521613833,0.5037676459366655,0.3696258388747587,0.2854630715123095,0.2348342968813614,0.1808166686624356
0.1260053619302949,0.3890583301563095,0.6018998854678973,0.7505231853728384,0.2834183673469387,0.5003613369467028,0.7650396253602306,0.4965185043876383,0.3649373333741918,0.2806811871413587,0.2294194283853106,0.1733924080948389
0.1280676428129511,0.3855318337781166,0.598059691437041,0.7514043396849873,0.2867346938775509,0.4961156278229449,0.7600864553314122,0.4934662342617321,0.3624551834033034,0.2790460911951626,0.2274651901310968,0.1717159621602203
0.147762425242318,0.3976362943194814,0.5937478946304655,0.7340015420200462,0.2975340136054421,0.4989159891598916,0.767921469740634,0.4979969477298741,0.3659179358318267,0.2828407478250139,0.2331650517058871,0.1789606035205364
0.1581769436997319,0.4118375905451772,0.5969817422353971,0.7201233616037008,0.2997448979591837,0.5078590785907859,0.7827809798270894,0.5059137733689432,0.3713418931756198,0.28833220213488,0.2409412914257796,0.1882409292300323
0.1506496184780366,0.4100266869996187,0.6006198207909451,0.7251899988985571,0.2943877551020408,0.5093947606142728,0.7836815561959655,0.5042922548645555,0.3703612907179849,0.2881470969334239,0.2398420324077843,0.1871632139863489
0.1365229944318416,0.398017537171178,0.6013609108670753,0.7397290450490142,0.288095238095238,0.5042457091237579,0.7751260806916427,0.4947539107210988,0.3635890049949438,0.2819460726846425,0.2318215129061151,0.1775835229313854
0.133017116931326,0.3921082729698817,0.5994744997641985,0.7450159709219076,0.2878401360544217,0.5001806684733514,0.7672910662824208,0.4862170927127051,0.3568473630987038,0.2757758993027704,0.224533832749776,0.16950065860376
0.1410600123736853,0.40383149065955,0.6025736037189248,0.7338913977310276,0.2892006802721088,0.5077687443541102,0.7817903458213257,0.4899847386493705,0.3592988692427911,0.2773801443820571,0.2275059034280596,0.1717758352293138
0.1486904516395133,0.4213686618375905,0.6099171326551236,0.7197929287366449,0.2876700680272108,0.5210478771454382,0.79782060518732,0.4976631056848531,0.3650292648545951,0.2821311778860986,0.2331243384089243,0.1790204765896299
0.1365229944318416,0.4225123903926801,0.6186754699184801,0.725520431765613,0.2772108843537414,0.5274616079494129,0.8043047550432277,0.4989507821442198,0.364998621027794,0.2812056518788178,0.2319436527970035,0.1772242845168243
0.1166219839142091,0.4205108654212733,0.6302634238361516,0.7374160149796233,0.2616496598639455,0.5342366757000904,0.7994416426512968,0.4932754673788631,0.3619342383476849,0.2774109952489665,0.2268544906766549,0.1692611663273859
0.1129098783254279,0.4301372474266106,0.6394933638752274,0.733781253442009,0.2543367346938775,0.5450767841011743,0.7972802593659942,0.4901278138115224,0.3606778414488401,0.2758067501696797,0.2256738050647341,0.1656687821817746
0.1213652299443184,0.4427182615325962,0.6428619551303645,0.7219958145170173,0.2556972789115646,0.5532971996386631,0.818263688760807,0.4991892407478062,0.3640486623969602,0.280280125871537,0.2301522677306408,0.1712369776074721
0.1211590018560528,0.4493900114372854,0.6477127265377618,0.7182509086903843,0.2524659863945578,0.559620596205962,0.8327629682997119,0.5027661198016025,0.3650599086813962,0.2823162830875548,0.2325950655484081,0.1746497425458029
0.1121880800164982,0.4435760579489134,0.6494643939904331,0.7264015860777618,0.247704081632653,0.5580849141824752,0.8222262247838616,0.4957554368561618,0.3617810192136794,0.2797248102671685,0.2297858480579757,0.1717159621602203
0.0992988244998968,0.4306138009912313,0.6487233039143029,0.7408304879392003,0.2428571428571428,0.551490514905149,0.7988112391930836,0.4829263639832126,0.354886158183434,0.2733695316838403,0.2223353147137855,0.1615375404143216
0.0978552278820375,0.4275638581776591,0.6475106110624537,0.7433638065866285,0.2430272108843537,0.5492321589882566,0.7814301152737754,0.4760587561999237,0.350534734777679,0.2700993397914482,0.218589691393209,0.1577056639923362
0.1088884306042483,0.4333778116660312,0.6444115071077275,0.7341116863090649,0.2495748299319727,0.5498644986449864,0.77710734870317,0.4782048836322015,0.3523427205589434,0.2717344357376443,0.2218874684471948,0.1643515746617171
0.1200247473705918,0.4429088829584445,0.6438725325069056,0.7225465359621104,0.2544217687074829,0.5540198735320686,0.7714337175792508,0.4824494467760397,0.3553151717586492,0.2754056888998581,0.2267323507857666,0.1719554544365944
0.1206434316353887,0.4409073579870377,0.6421208650542343,0.7234276902742591,0.2558673469387755,0.5519421860885275,0.756213976945245,0.4780618084700496,0.3528636656145619,0.2739865490220275,0.2242081263740737,0.1686624356364507
0.1086822025159826,0.4299466260007624,0.6421208650542343,0.7360942835113998,0.2508503401360544,0.546702800361337,0.7404538904899136,0.469381915299504,0.3473477767903656,0.268371691244524,0.2183046983144695,0.1595617291342353
0.1070323778098577,0.4248951582157834,0.6396954793505356,0.7399493336270514,0.2517006802721088,0.5426377597109304,0.7340597982708934,0.4669973292636398,0.3452946403946925,0.266489788363053,0.2165133132481068,0.1581247754759908
0.1181686945762012,0.4268013724742661,0.6336993869163915,0.7329000991298601,0.2601190476190476,0.5395663956639566,0.7457672910662825,0.4740557039297978,0.3493089817056354,0.2700993397914482,0.2209103493200879,0.1647706861453718
0.1250773355330996,0.4277544796035074,0.6298591928855353,0.728604471858134,0.265391156462585,0.5374887082204156,0.7597262247838618,0.4810186951545212,0.3530781724021696,0.2738631455543901,0.2255109518768829,0.1720752005747814
0.1251804495772324,0.4201296225695767,0.6244020750522131,0.7330102434188787,0.2688775510204081,0.5301716350496838,0.7552233429394812,0.4778710415871805,0.351178255140502,0.271796137471463,0.2235567136226691,0.1702790085019758
0.1146628170756857,0.4023065192527639,0.6186754699184801,0.7489811653265778,0.2681122448979591,0.5178861788617887,0.7427053314121038,0.470049599389546,0.3448656268194772,0.2651632010859505,0.2155769074179626,0.1608190635851993
0.1088884306042483,0.3960160121997712,0.6179343798423499,0.7555898226676946,0.2662414965986394,0.5143631436314363,0.7391930835734871,0.4658527279664251,0.3410351484693409,0.261522798790646,0.2111391580490187,0.1537540414321637
0.1219839142091152,0.4048799085017155,0.6157784814390621,0.743473950875647,0.2729591836734694,0.517163504968383,0.7527017291066284,0.4719572682182373,0.3439156681886434,0.2642993768124884,0.2144776483999674,0.1599209675487965
0.1303361517838729,0.4092642012962256,0.6132857239102607,0.7365348606674744,0.2780612244897959,0.5175248419150857,0.7637788184438041,0.478300267073636,0.3475929274047743,0.2676312704386993,0.2194039573324647,0.1674649742545802
0.1280676428129511,0.4069767441860464,0.613218352085158,0.7390681793149024,0.277125850340136,0.5164408310749774,0.7534221902017292,0.4741510873712324,0.3466429687739405,0.2673536126365151,0.2195260972233531,0.1663872590108969
0.1193029490616622,0.3996378192908882,0.6136899548608771,0.7479898667254102,0.2732142857142857,0.5132791327913279,0.7418948126801154,0.4663773368943152,0.3425366959825943,0.2643610785463072,0.2156583340118882,0.1617171596216022
0.1174468962672716,0.4053564620663362,0.6190797008690965,0.7456768366560194,0.269047619047619,0.5196025293586269,0.7402737752161384,0.4630866081648225,0.3402996966261147,0.262633429999383,0.2138262356485628,0.1592024907196742
0.1255929057537636,0.4238467403736179,0.6266927171057064,0.7305870690604692,0.2676020408163265,0.5335140018066847,0.7507204610951009,0.46752193819153,0.34241412067539,0.2647004380823101,0.216472599951144,0.1633936055562208
0.1307486079604042,0.4340449866565001,0.6306002829616655,0.7219958145170173,0.2672619047619047,0.5409214092140922,0.7680115273775218,0.4739603204883632,0.3459075169307143,0.2673844635034245,0.2210324892109763,0.1680637049455154
0.1208496597236543,0.4244186046511627,0.6302634238361516,0.7329000991298601,0.2633503401360544,0.53613369467028,0.767020893371758,0.471575734452499,0.3438850243618423,0.265718516690319,0.2183454116114322,0.1636330978325949
0.1019797896473499,0.4074532977506671,0.6306002829616655,0.7527260711532107,0.2553571428571428,0.5283649503161698,0.7608969740634006,0.4648035101106448,0.3401771213189103,0.2605972727833652,0.2111391580490187,0.1542330259849119
0.1019797896473499,0.4068814334731223,0.6301960520110489,0.7530565040202665,0.2556972789115646,0.5278229448961156,0.7654899135446687,0.4654711942006868,0.3395642447828885,0.2589313259702598,0.2088185001221398,0.1514189917375164
0.1105382553103732,0.4162218833396873,0.63120662938759,0.7430333737195727,0.2585884353741496,0.5328816621499548,0.7863832853025937,0.4741510873712324,0.344436613244262,0.2628493860677485,0.2134598159758977,0.1575859178541492
0.1159001856052794,0.4166984369043079,0.628107525432864,0.7399493336270514,0.2626700680272109,0.5310749774164408,0.7997118155619598,0.4813048454788248,0.3477461465387798,0.2658419201579565,0.2176939988600276,0.1638127170398754
0.1096102289131779,0.4122188333968737,0.6289833591591997,0.7458971252340566,0.2596088435374149,0.5294489611562783,0.8019632564841499,0.4807325448302175,0.3459994484111175,0.2647004380823101,0.2167983063268463,0.1618967788288827
0.1016704475149515,0.4142203583682805,0.6355857980192683,0.7489811653265778,0.252125850340136,0.5348690153568202,0.7846721902017292,0.4717188096146509,0.3419544632733736,0.2612142901215524,0.2121162771761257,0.154352772123099
0.0989894823674984,0.4249904689287075,0.6450178535336522,0.7441348166097588,0.2450680272108843,0.5462511291779585,0.7708933717579252,0.4656619610835559,0.340422271933319,0.2603504658480903,0.2104470320006514,0.1514189917375164
0.1071354918539905,0.4430041936713686,0.6522940106447483,0.729485626170283,0.2437925170068027,0.5597109304426378,0.7754863112391932,0.4698111407859596,0.3436705175742347,0.2644844820139446,0.2161876068724045,0.1573464255777751
0.1148690451639513,0.4593023255813952,0.6587617058546116,0.7158277343319748,0.2429421768707483,0.5717253839205059,0.7846721902017292,0.4757249141549027,0.347163913829559,0.2680323317085211,0.222416741307711,0.1645311938689977
0.104145184574139,0.4517727792603888,0.6605133733072829,0.7259610089216874,0.2374149659863945,0.5693766937669377,0.7716138328530259,0.4684280808851583,0.3448656268194772,0.2654717097550442,0.2189561110658741,0.1609388097233864
0.0906372447927407,0.4372855508959206,0.6590311931550225,0.741491353673312,0.2327380952380952,0.5615176151761517,0.7451368876080692,0.4584128195345288,0.3386449299788558,0.2600419571789967,0.2114648644247211,0.15147886480661
0.0939368942049907,0.4342356080823484,0.6547867681735499,0.7416014979623305,0.2368197278911564,0.5572719060523939,0.7336095100864555,0.4562190003815338,0.3368675880243925,0.2590238785709878,0.2105691718915397,0.1495030535265237
0.1088884306042483,0.4348074723598932,0.6454220844842686,0.7332305319969159,0.2488945578231292,0.5512195121951219,0.7418948126801154,0.4636112170927127,0.3396868200900929,0.2620781143950145,0.214925494666558,0.1551909950904083
0.1191998350175293,0.4356652687762103,0.6393586202250219,0.7272827403899107,0.2569727891156462,0.5475158084914182,0.744956772334294,0.4689526898130485,0.3440382434958478,0.2658110692910471,0.2194039573324647,0.1617770326906957
0.1211590018560528,0.4266107510484178,0.6316782321633092,0.7314682233726181,0.2625850340136054,0.5381210478771454,0.7387427953890491,0.4694772987409386,0.3440995311494499,0.2652249028197692,0.2189561110658741,0.1625553825889115
0.1120849659723654,0.4091688905833015,0.6252105369534461,0.7463377023901311,0.2630102040816326,0.5255645889792232,0.7309978386167146,0.4623712323540633,0.3400239021849049,0.2612451409884618,0.2141112287273023,0.1549515028140342
0.1167250979583419,0.4076439191765153,0.6211008556221788,0.7447956823438704,0.2674319727891156,0.5220415537488707,0.7297370317002883,0.4616081648225868,0.3395948886096896,0.2616153513913741,0.2137855223516,0.1541731529158184
0.1288925551660136,0.4169843690430803,0.6198207909452267,0.7329000991298601,0.2732993197278911,0.5255645889792232,0.7436959654178674,0.4699542159481115,0.3444979008978642,0.2663046831615969,0.2200146567869066,0.1638725901089689
0.136316766343576,0.4193671368661837,0.6165195715151923,0.7275030289679479,0.2784863945578231,0.5244805781391148,0.7563040345821326,0.4768218237314002,0.3492783378788344,0.270253594125995,0.2251038189072551,0.1713567237456592
0.1320890905341307,0.4071673656118947,0.6107255945563566,0.7368652935345302,0.2803571428571428,0.5148148148148148,0.7554935158501442,0.4762018313620755,0.3476542150583765,0.2685259455790708,0.2232310072469668,0.1688420548437312
0.1187873788409981,0.3915364086923369,0.6084349525028633,0.7529463597312479,0.2763605442176871,0.5058717253839206,0.7430655619596542,0.469048073254483,0.3425366959825943,0.2625100265317456,0.2155769074179626,0.1589031253742066
0.115590843472881,0.3909645444147921,0.6100518763053291,0.7550391012226015,0.2739795918367346,0.5066847335140018,0.7400936599423631,0.4656619610835559,0.3399932583581038,0.2598568519775406,0.2120755638791629,0.1547718836067536
0.1280676428129511,0.4039268013724741,0.6110624536818702,0.7408304879392003,0.2784863945578231,0.513550135501355,0.7503602305475505,0.4694296070202213,0.3425979836361965,0.2630344912692047,0.21626903346633,0.1607591905161058
0.1284800989894823,0.4101219977125428,0.6151721350131375,0.7369754378235488,0.2761054421768707,0.5192411924119241,0.7564841498559077,0.4698588325066768,0.3434560107866271,0.2647621398161289,0.2192003908476508,0.1648305592144653
0.1195091771499278,0.4056423942051086,0.6177996361921444,0.744355105187796,0.2707482993197279,0.5188798554652213,0.7530619596541787,0.467188096146509,0.341770600312567,0.2631578947368421,0.2167983063268463,0.161238175068854
