Lead I,Lead II,Lead III,aVR,aVL,aVF,V1,V2,V3,V4,V5,V6
0.1521340904927642,0.7096651082911936,0.8918244875691684,0.5998139150211931,0.0893300248138957,0.8463091992325558,0.8037716172764404,0.6766992726360671,0.6877015919259183,0.5399414300821606,0.3688942891859053,0.2844334309529173
0.1651401355559626,0.7225455586299018,0.8912789338321253,0.5855473999793238,0.0966749379652605,0.8527718873068766,0.8146345702615799,0.692082601789148,0.6946207470606597,0.5463678516228748,0.3746224613782329,0.2913268754223924
0.1674299322220186,0.7297967751168782,0.8952536824877251,0.5802749922464593,0.0953846153846153,0.8591335958800363,0.8206309203093769,0.6976005350723183,0.6987826448860681,0.5499064508256731,0.3782676618642597,0.2952466771795449
0.1602857666239237,0.7129090735616831,0.8875379939209727,0.5935077018505117,0.0964764267990074,0.8451984247197818,0.814721473885461,0.692500627037873,0.695765268962647,0.5477100789066949,0.3754903662558583,0.2929939175489975
0.1555229895585271,0.6992653372769774,0.8803678590912634,0.6035356145973327,0.0984615384615384,0.8333838230839139,0.8055096897540627,0.6854778028592927,0.6892102798876288,0.5429919466362971,0.3711855580628364,0.2883081775174589
0.1676131159553031,0.707089018223452,0.8765489829319616,0.5924738964126952,0.107394540942928,0.8349994951024942,0.8074215694794472,0.6896580553465429,0.6926438455935907,0.5443341739201172,0.3730255164034022,0.2894345573327326
0.1797948342187213,0.7123366091021849,0.8704699555763385,0.5827561252972191,0.1179156327543424,0.8338887205897202,0.8204571130616146,0.7060446450965638,0.7047653730100926,0.5515333929878793,0.3799340392293005,0.2973192160396485
0.177413445686023,0.7155805743726744,0.8750681942171303,0.5823426031220924,0.1136476426799007,0.8385337776431385,0.8242808725123838,0.7093052420366189,0.7059619186348975,0.5532823558122509,0.3815657003992363,0.2990313133588646
0.166788789155523,0.7086155901154471,0.8784973891356871,0.5920603742375685,0.1057071960297766,0.8371200646268807,0.8122881724167897,0.6947579633809882,0.6962334824680054,0.5464491987309852,0.3757333796215935,0.2924082000450552
0.157721194357941,0.7002194447094744,0.8792767516171771,0.6017781453530445,0.1003473945409429,0.8331818640815913,0.8030763882853914,0.6859794331577627,0.691291228800333,0.5418124135686976,0.3717757333796216,0.2871367425095742
0.1609269096904194,0.7038450529529625,0.8795884966097732,0.5979530652331231,0.1018362282878411,0.8353024336059779,0.8074215694794472,0.692249811888638,0.696545624804911,0.5446188887985033,0.3737892726957126,0.2901554404145077
0.1729254442205532,0.7198740578189105,0.8824721377912866,0.5825493642096558,0.106501240694789,0.8457033222255882,0.8138524376466498,0.7004431067636485,0.701175736135678,0.5489709590824047,0.3774691893768443,0.2946159044829916
0.1733834035537644,0.7255032916706422,0.8866806951913334,0.5792411868086426,0.1041191066997518,0.8513581742906189,0.8111584253063353,0.6982693754702783,0.6981063364894392,0.5479134466769706,0.3771220274257941,0.2947961252534354
0.1640410331562557,0.7147218776834272,0.8858233964616944,0.5904062855370619,0.099652605459057,0.8450974452186205,0.7948205440166854,0.6846417523618425,0.6888461138279056,0.5411616367038152,0.3712897066481513,0.2879927911691822
0.1494779263601392,0.6964030149794868,0.8832515002727768,0.6084978806988524,0.0933002481389577,0.833787741088559,0.7830016511688537,0.6750271716411671,0.6806783893455416,0.534206458960384,0.3652490886998785,0.28123451227754
0.1525004579593331,0.6932544604522469,0.8781077078949419,0.6084978806988524,0.0982630272952853,0.8287387660304957,0.7850004345181194,0.6743583312432071,0.6808864842368121,0.534206458960384,0.3651796563096685,0.2811444018923181
0.1662392379556695,0.7048945711287091,0.8759254929467695,0.5944381267445467,0.1070967741935483,0.8334848025850751,0.7925610497957765,0.6818827857202575,0.6852564769534908,0.5389245912307817,0.3686165596250652,0.2862356386573553
0.1674299322220186,0.7032725884934644,0.8736653417504482,0.59464488783211,0.1091811414392059,0.8311622740583662,0.7991657252107413,0.6858958281080177,0.6866611174695662,0.5389245912307817,0.3701787884047909,0.2880829015544042
0.1466385784942297,0.6867665299112681,0.8777959629023458,0.615320996588442,0.0952853598014888,0.8251035039886903,0.7972538454853567,0.6743583312432071,0.679169701383831,0.5324168225819572,0.3651796563096685,0.2814147330479837
0.1359223300970873,0.674172311802309,0.8766269191801107,0.6281401840173679,0.0902233250620347,0.8177320004039179,0.7963848092465456,0.6665830616169216,0.674175423993341,0.5270072398926218,0.3604582537753862,0.2760531651272809
0.1427917200952555,0.6784657952485451,0.8742888317356403,0.6219373513904684,0.0954838709677419,0.8184388569120468,0.8094203528287129,0.6744419362929521,0.6777650608677558,0.5300170828927032,0.362194063530637,0.279477359765713
0.148653599560359,0.6919187100467513,0.8802899228431142,0.611392535924739,0.094789081885856,0.8294456225386245,0.8242808725123838,0.6855614079090376,0.6851524295078557,0.5357927275685349,0.3672626280159695,0.2851993692273034
0.148653599560359,0.6986928728174793,0.8858233964616944,0.6076708363485992,0.0913151364764267,0.8366151671210743,0.8281046319631528,0.6895744502967979,0.6884819477681824,0.539005938338892,0.3709078285019961,0.2885334534805136
0.1405019234291994,0.6946856216009923,0.8894864001246979,0.6144939522381888,0.0844665012406947,0.8369181056245583,0.8137655340227686,0.6805451049243374,0.6822911247528873,0.5357927275685349,0.368477694844645,0.2848389276864159
0.1350064114306649,0.6851445472760234,0.8864468864468864,0.6227643957407216,0.0834739454094292,0.8298495405432696,0.804988268010776,0.673104255497032,0.678389345541567,0.5339217440819979,0.3658739802117688,0.2807839603514305
0.1441655980948891,0.6927774067359985,0.8848102252357571,0.6134601468003722,0.0895285359801488,0.8328789255781076,0.8084644129660206,0.6782877685812222,0.6832795754864218,0.5378264052712927,0.3685818434299601,0.2841180446046407
0.1544238871588203,0.7115733231561874,0.8915127425765724,0.5974361625142148,0.090818858560794,0.8471170352418459,0.8150690883809855,0.691664576540423,0.6928519404848611,0.545106971447165,0.3758722444020135,0.2928587519711647
0.1581791536911522,0.7170117355214197,0.8926817862988075,0.5923705158689134,0.0921091811414391,0.8507522972836514,0.8084644129660206,0.691915391689658,0.6940484861096661,0.5449849507849995,0.3762194063530637,0.2941653525568822
0.1499358856933504,0.7061349107909551,0.8908113163432312,0.6030187118784245,0.088833746898263,0.8437847117035242,0.7856087598852872,0.674525541342697,0.6844761211112268,0.5375010168388513,0.3698663426488457,0.2866411353908538
0.1453562923612383,0.6973571224119837,0.8875379939209727,0.6103587304869224,0.0884367245657568,0.8370190851257194,0.777961240983749,0.6641585151743166,0.6767766101342212,0.5325388432441227,0.3650755077243535,0.2820004505519261
0.1527752335592599,0.7047991603854594,0.8873041851765255,0.6020882869843895,0.0926054590570719,0.8407553266686862,0.784739723646476,0.6709305242036618,0.6798980335032776,0.5346131945009355,0.3671584794306544,0.2855147555755801
0.1612016852903462,0.718156664440416,0.8910451250876783,0.590096143905717,0.0946898263027295,0.8503483792790063,0.792995567915182,0.6810467352228076,0.6872333784205599,0.5405515333929879,0.372470057281722,0.2924082000450552
0.1594614398241436,0.7228317908596508,0.8963447899618113,0.588545435748992,0.0904218362282878,0.8562051903463597,0.7970800382375944,0.6844745422623527,0.6897305171158049,0.5426258846498007,0.3742405832320777,0.2938499662086055
0.1417842095621908,0.7193015933594124,0.9085028446730574,0.6004341982838829,0.0731513647642679,0.8621629809148743,0.7989050143390979,0.6817155756207675,0.6918634897513266,0.5439274383795656,0.372678354452352,0.2874521288578509
0.1216339989008975,0.7274115065356359,0.9322734003585068,0.6073606947172543,0.0470471464019851,0.8819549631424821,0.8108977144346918,0.6958448290276732,0.7083550098845074,0.5557227690555601,0.3784065266446798,0.2866861905834647
0.1272211027660743,0.7512641923480585,0.9470812875068194,0.5913367104310968,0.0405955334987593,0.9041704533979602,0.8270617884765794,0.7183345874090794,0.7303090209135366,0.5787440006507769,0.3976392987328589,0.3030862806938499
0.1559809488917384,0.7783608434309705,0.9446652638142,0.5604259278403805,0.0577667493796526,0.9168938705442794,0.819240462327279,0.7231000752445449,0.7409738840911456,0.6030261124217035,0.4302725221315744,0.3372831718855598
0.1939915735482689,0.7921954012021754,0.923622476813966,0.5314793755815156,0.0918114143920595,0.9105321619711196,0.7808290605718259,0.7021152077585486,0.7391530537925294,0.6248678109493208,0.4692588092345079,0.3829691371930615
0.2372229346034071,0.7974429920809085,0.8912009975839763,0.5041869120231572,0.1358808933002481,0.8923558517620922,0.7274702355088207,0.7004431067636485,0.7624076578919988,0.6678190840315626,0.5212636695018227,0.4364496508222572
0.3088477743176406,0.8045987978246351,0.8359441976463252,0.4599400392846066,0.2098263027295285,0.8603453498939715,0.6741983140696967,0.7563748850430566,0.8377900322547082,0.7529081591149435,0.6014927963895158,0.5162423969362469
0.4366184282835683,0.8651846197881882,0.7767905853012236,0.3550087873462214,0.3167245657568238,0.8540846208219731,0.5907708351438254,0.8108853774767996,0.9157735927582978,0.8600016269421622,0.7279986113521959,0.652399189006533
0.59232460157538,0.9126991699265338,0.6831112150261086,0.2413935697301767,0.4607444168734491,0.8185398364132082,0.498913704701486,0.8379734135941811,0.9489647279159296,0.9395184251199872,0.8559972227043916,0.7995494480738906
0.7519692251328082,0.9103139013452914,0.5453199282986516,0.1525896826217306,0.6349379652605459,0.7280622033727152,0.3664725819066655,0.7791154585736978,0.8938195817292687,0.9458228259985356,0.9293178267661866,0.907276413606668
0.8659095072357574,0.8848392328976245,0.4275582573454914,0.1020365967124987,0.7717121588089331,0.6382914268403515,0.231858868514817,0.6323885962712148,0.7463323275413589,0.8411697714146261,0.8878666898107969,0.9195764811894572
0.8899981681626671,0.8823585535731325,0.4049567453822772,0.0898376925462628,0.7991066997518609,0.6223366656568716,0.1419136177978621,0.419362929520943,0.5330350639891792,0.6401610672740584,0.7211942371116127,0.809686866411354
0.8473163583073823,0.7754985211334797,0.354064375340971,0.1718184637651193,0.8084367245657568,0.5327678481268302,0.1746762840010428,0.2943733801521612,0.3551139319529706,0.4293093630521435,0.5042527339003645,0.6281144401892318
0.7300787690053123,0.5067264573991032,0.2341984256877874,0.3835418174299597,0.8212406947890818,0.3128344945975966,0.374380811679847,0.2944569852019061,0.2541879096868172,0.2516066053851786,0.2870335011282764,0.4087857625591349
0.5641143066495694,0.29844480488503,0.2053620138726521,0.590096143905717,0.7496774193548388,0.1839846511158234,0.5550534457286869,0.2498118886380737,0.1669961502445115,0.12067843488164,0.1299774344731817,0.2268078396035143
0.3969591500274775,0.1786089113634195,0.2497077390694412,0.7493021813294738,0.6308684863523574,0.1493486822175098,0.6776744590249413,0.2099322799097065,0.1143481427530954,0.0486455706499634,0.0452699184169414,0.1146204100022527
0.2744092324601575,0.1293769678465795,0.3136933987997817,0.845135945415073,0.5236724565756823,0.164697566394022,0.7511080212044842,0.2079257587158264,0.1207470606596608,0.0455950540958269,0.0206908522825898,0.056724487497184
0.18913720461623,0.1600992271729797,0.4113475177304964,0.8766670112684793,0.4153846153846153,0.2441684338079369,0.7856956635091684,0.2186272050831869,0.1605972323379461,0.0862686081509802,0.040027772956084,0.0430727641360666
0.1204433046345484,0.2146741723118023,0.5144571740316422,0.8858678796650471,0.3124565756823821,0.3398970009088154,0.8108977144346918,0.2456316361508234,0.2100197690146707,0.1340193606117302,0.0701614303072383,0.046271682811444
0.0833485986444403,0.2749737620456063,0.5952770633621697,0.8741858782177195,0.2408933002481389,0.4242148843784711,0.8337533675154254,0.3067469275144218,0.2825928623452295,0.1966159603026112,0.1120638777989932,0.067222347375535
0.0579776515845392,0.3611296632000764,0.6873197724261554,0.8417243874702781,0.1685359801488833,0.5294355245885084,0.8646041539932214,0.4045648357160772,0.3833107897201124,0.2791019279264622,0.1696233292831105,0.1074566343771119
0.0565121817182634,0.4588302642877588,0.768295534252981,0.7896205934043212,0.1161290322580645,0.633545390285772,0.8581732858260189,0.4851601036702616,0.4718551659556759,0.3524363458879036,0.2223225134525256,0.1496733498535706
0.0925993771753068,0.5388798778742486,0.8029771646792923,0.7259381784348186,0.1136476426799007,0.6983742300313036,0.8487876944468584,0.5522949586155004,0.5454687337425868,0.4143008216057919,0.269536538795348,0.1931966659157468
0.134273676497527,0.6137773113252553,0.8286181903203179,0.6618422412901892,0.1199007444168734,0.7546198121781279,0.8532197792647954,0.6225232004013043,0.6125273124544792,0.4696168551208005,0.3117514320430481,0.2339265600360441
0.154332295292178,0.6673027382883313,0.8554282596835788,0.6215238292153417,0.1136476426799007,0.8003635262041804,0.8566959242200399,0.6810467352228076,0.6665279367391531,0.5108598389327259,0.341051900711682,0.2594277990538409
0.1423337607620443,0.6668256845720828,0.8651702907022055,0.6285537061924945,0.1009429280397022,0.8064222962738564,0.8503519596767185,0.7026168380570187,0.6890021849963583,0.5272106076628975,0.3508418677312967,0.2643838702410452
0.1357391463638028,0.6680660242343288,0.8717948717948717,0.6315517419621628,0.0932009925558312,0.811269312329597,0.8366211871035022,0.7062118551960539,0.6973780043699928,0.5348165622712113,0.3544523520222184,0.266321243523316
0.1410514746290529,0.6762713481538022,0.8740550229911931,0.6242117233536649,0.0945905707196029,0.8171261233969505,0.8479186582080472,0.7229328651450546,0.7096556029549475,0.544822256568779,0.362089914945322,0.2734399639558459
0.1457226598278072,0.6884839232897624,0.8799781778505181,0.6149074744133154,0.0933995037220843,0.8274260325153994,0.8697314678022073,0.7413259760889558,0.7232337946103424,0.5555600748393394,0.3707342475264711,0.2818652849740933
0.1433412712951089,0.6999332124797253,0.8912789338321253,0.6100485888555774,0.0848635235732009,0.8408563061698474,0.8696445641783263,0.7443357578797759,0.7292685464571845,0.561254372407061,0.3749349071341781,0.2851993692273034
0.1362886975636563,0.6988836943039787,0.8965006624581092,0.6145973327819704,0.0778163771712158,0.8435827527012016,0.8550447553662986,0.7326310509154753,0.7258870044740402,0.5565769136907183,0.3703176531852109,0.2795674701509349
0.1352811870305916,0.69230035301975,0.8920582963136156,0.6187325545332368,0.0799999999999999,0.8373220236292032,0.847831754584166,0.72903603377644,0.7238580792841537,0.5547059302041812,0.3676792223572296,0.2773147105203875
0.1447151492947426,0.6988836943039787,0.8893305276284,0.6098418277680141,0.086848635235732,0.8389376956477834,0.8530459720170331,0.7429980770838558,0.7306211632504422,0.5601561864475718,0.3714285714285715,0.2815498986258166
0.1525004579593331,0.715389752886175,0.8961889174655132,0.5965057376201798,0.0867493796526054,0.8521660102999091,0.8575649604588511,0.7537831285009615,0.7378004369992717,0.5665012608801757,0.3769484464502691,0.2874070736652399
0.1483788239604323,0.719397004102662,0.9029693710544774,0.5966091181639616,0.080198511166253,0.8586286983742301,0.8476579473364039,0.7489340356157511,0.736447820206014,0.566582607988286,0.3782329456691547,0.2880829015544042
0.1356475544971606,0.7072798397099513,0.9039046060322656,0.6103587304869224,0.0727543424317617,0.852872866808038,0.8290605718258451,0.728785218627205,0.7256789095827698,0.5599121451232408,0.3722964763061969,0.2814597882405947
0.1292361238322036,0.6921095315332507,0.8970462161951523,0.6222474930218134,0.0736476426799007,0.8404523881652025,0.8219344746675936,0.7191706379065295,0.7209447508063678,0.5562108517042219,0.3691025863565353,0.2774949312908312
0.134273676497527,0.700314855452724,0.8993843036396227,0.6149074744133154,0.0748387096774193,0.8463091992325558,0.8240201616407403,0.726109857035365,0.7250026011861409,0.5593020418124135,0.3718798819649366,0.2792070286100473
0.1442571899615314,0.7179658429539166,0.905307458498948,0.5997105344774113,0.0765260545905707,0.8594365343835201,0.8233249326496915,0.7311261600200651,0.7283841431692852,0.5625152525827707,0.3753167852803333,0.2839378238341969
0.1382121267631434,0.722163915656903,0.9138804457953394,0.6008477204590096,0.0677915632754342,0.8672119559729374,0.8103762926914052,0.7217623944486246,0.7241702216210593,0.5603188806637924,0.3739281374761326,0.2835323271006983
0.1258472247664407,0.7106192157236906,0.9149715532694256,0.6140804300630621,0.0603473945409429,0.8618600424113904,0.7937777005301121,0.7043725441016636,0.7146498803454376,0.5532823558122509,0.3690678701614303,0.2774949312908312
0.1185198754350613,0.697261711668734,0.9102953783804848,0.6254522898790448,0.0593548387096774,0.851762092295264,0.7922134353002519,0.6982693754702783,0.7108521485797524,0.5503131863662247,0.3665335879187641,0.2739355710745663
0.1194357941014837,0.6981204083579812,0.9101395058841868,0.6245218649850098,0.0599503722084367,0.8520650307987477,0.8044668462674893,0.7075495359919739,0.7167308292581418,0.5534450500284716,0.368477694844645,0.2764136066681685
0.1290529400989192,0.7096651082911936,0.9115423583508688,0.6128398635376822,0.0643176178660049,0.8590326163788752,0.8165464499869645,0.7200902934537246,0.7229736759962544,0.5568209550150492,0.3710466932824163,0.2797026357287677
0.1232826525004579,0.7044175174124607,0.9120099758397632,0.6189393156208002,0.0608436724565756,0.8566091083510047,0.8209785348049012,0.7206755288019396,0.72328581833316,0.5571056698934354,0.3698316264537407,0.2780355936021627
0.1144898333028026,0.6946856216009923,0.911620294599018,0.6291739894551845,0.0562779156327543,0.8512571947894577,0.8114191361779786,0.710475712733049,0.7180834460513995,0.5534857235825267,0.3659781287970838,0.2720432529849065
0.1165964462355742,0.6964984257227365,0.911308549606422,0.6270029980357696,0.057667493796526,0.8519640512975866,0.8054227861301817,0.7045397542011538,0.7157423785246073,0.5520621491905963,0.3640687380663079,0.2688893895021401
0.1230078769005312,0.702795534777216,0.9110747408619748,0.6199731210586167,0.0613399503722084,0.8550944158335857,0.8155036065003911,0.7180837722598444,0.7246384351264177,0.5599934922313512,0.3698316264537407,0.2739806262671773
0.1289613482322769,0.7125274305886843,0.9138804457953394,0.611392535924739,0.0627295285359801,0.8620620014137129,0.8266272703571739,0.7312933701195552,0.7344188950161274,0.5675180997315545,0.3754209338656484,0.2809641811218743
0.1263051840996519,0.7172025570079191,0.9199594731509624,0.6102553499431407,0.0574689826302729,0.8685246894880339,0.827409402972104,0.7313769751693001,0.7361356778691084,0.5684942650288782,0.3756292310362784,0.2805586843883758
0.1129327715698845,0.7100467512641924,0.9254929467695424,0.621730590302905,0.0466501240694788,0.8683227304857113,0.8187190405839923,0.7215951843491347,0.7308812818645303,0.5647929716098593,0.3715327200138865,0.2747015093489525
0.1094522806374793,0.7117641446426868,0.9298573766658872,0.6227643957407216,0.0419851116625309,0.8720589720286781,0.8139393412705309,0.7194214530557645,0.7313494953698887,0.5645082567314732,0.3710466932824163,0.2732146879927912
0.1182450998351346,0.7234996660623987,0.9319616553659108,0.6114959164685206,0.0453598014888337,0.879632434615773,0.8228904145302859,0.7312097650698103,0.7401415045260639,0.5704059220694704,0.3742405832320777,0.2765487722460014
0.1284117970324235,0.7355214197118596,0.933130699088146,0.599193631758503,0.0501240694789081,0.8867009996970615,0.8332319457721387,0.745088203327481,0.7505982728124024,0.5763442609615228,0.3778857837181045,0.2814147330479837
0.1247481223667338,0.7371434023471043,0.9375730652326396,0.6003308177401013,0.0453598014888337,0.8904372412400282,0.8331450421482576,0.747345539670596,0.7553324315888046,0.579313430407549,0.3793438639125152,0.2830367199819779
0.1152225682359406,0.7279839709951341,0.9381965552178316,0.610772252662049,0.0398014888337468,0.8860951226900938,0.8216737637959503,0.7404899255915058,0.7516907709915722,0.5763035874074677,0.3756292310362784,0.2774949312908312
0.1167796299688587,0.7268390420761378,0.9359364040215102,0.610462111030704,0.0420843672456575,0.8839745531657073,0.8190666550795168,0.7407407407407408,0.7519508896056601,0.5750020336777028,0.3742752994271828,0.2748817301193962
0.1205348965011906,0.7334223833603664,0.9381186189696828,0.6047761811227127,0.0427791563275434,0.888821569221448,0.8307986443034674,0.7554552294958615,0.7615232546040995,0.5815911494346375,0.3790314181565701,0.2788916422617707
0.130884777431764,0.7450624940368286,0.938820045203024,0.5925772769564768,0.0478411910669974,0.8954862162980913,0.8452246458677327,0.7753532313351726,0.7738008531890542,0.5910274139754332,0.3854191980558931,0.2851092588420815
0.1277706539659278,0.7469707089018225,0.9430286026030706,0.5933009407629484,0.0435732009925558,0.8992224578410583,0.8468758147214739,0.7838809464091631,0.7798356050358963,0.5942812982998454,0.3869119944454088,0.2850642036494706
0.1143982414361604,0.7396240816715962,0.9484062037253526,0.6048795616664944,0.0328535980148883,0.8988185398364131,0.8419223081602502,0.7823760555137531,0.7800957236499845,0.5929390710160254,0.3835792397153272,0.2795674701509349
0.1115588935702509,0.7448716725503292,0.9551087210661678,0.6036389951411144,0.0270967741935483,0.9058871049177016,0.843225862518467,0.7878939887969234,0.7851940484861097,0.5945253396241763,0.383197361569172,0.2774949312908312
0.1207180802344751,0.7584199980917852,0.9583820434884264,0.5911299493435335,0.0299751861042183,0.9152781985256992,0.8565221169722778,0.8092968815316445,0.7985121215274166,0.6029447653135931,0.3880229126887693,0.2822707817075918
0.1311595530316908,0.7723499666062399,0.9608760034291948,0.5776904786519177,0.0339454094292803,0.9242653741290516,0.8731207091335709,0.8347128166541259,0.815836021225679,0.613519889367933,0.3942371116125673,0.2884433430952917
0.128228613299139,0.7721591451197405,0.9632140908736652,0.5794479478962059,0.0308684863523573,0.9256790871453094,0.8801599026679412,0.8433241367778613,0.8227031526376029,0.6162856910436834,0.3945495573685124,0.2876323496282946
0.1183366917017768,0.7614731418757753,0.9629023458810694,0.5908198077121886,0.0257071960297766,0.919822276077956,0.8738159381246198,0.8393946994398462,0.8203620851108107,0.6124217034084438,0.3885436556153446,0.2798828564992115
0.1169628137021432,0.7568934261997903,0.9603304496921518,0.5941279851132016,0.0266997518610421,0.9156821165303444,0.8722516728947597,0.8436585569768413,0.8222349391322443,0.612747091840885,0.3855580628363131,0.2753322820455057
0.1305184099651951,0.7629997137677704,0.9537838048476344,0.583066266928564,0.038213399503722,0.9146723215187316,0.8842443729903537,0.8622188780202324,0.8345645614400167,0.6195802489221508,0.3892032633223399,0.2787114214913269
0.139586004762777,0.7720637343764909,0.9534720598550386,0.573038354181743,0.0432754342431761,0.9192163990709884,0.90110367602329,0.8833709556057185,0.8475184684216003,0.6274709184088505,0.3949314355146676,0.2840729894120297
0.1368382487635098,0.7717775021467419,0.955576338555062,0.5747958234260312,0.0403970223325061,0.9205291325860848,0.9027548448770314,0.8922330908786891,0.8531890542087193,0.6296672903278289,0.3952785974657178,0.2839828790268078
0.1274042864993588,0.762808892281271,0.956199828540254,0.584927116716634,0.0349379652605458,0.9161870140361504,0.8922395063874163,0.8866315525457737,0.8497034647799397,0.6250711787195965,0.3897587224440202,0.2774949312908312
0.1304268180985528,0.7612823203892759,0.9524588886291012,0.5841000723663806,0.0390074441687344,0.9129556699989902,0.891196662900843,0.8934035615751191,0.8541254812194362,0.6274709184088505,0.3904183301510154,0.2785312007208831
0.1418758014288331,0.7659574468085107,0.9465357337697764,0.5751059650573762,0.0489330024813895,0.9115419569827324,0.9003215434083601,0.9167293704539754,0.8686400998855478,0.6375579598145287,0.3974657177573338,0.287362018472629
0.1597362154240703,0.7793149508634672,0.9422492401215804,0.557841414245839,0.0613399503722084,0.9158840755326668,0.9064047970800384,0.9359585318953264,0.8799812714597857,0.6448791995444563,0.4024301336573512,0.2946159044829916
0.163766257556329,0.7776929682282226,0.9374951289844906,0.5563940866328957,0.066501240694789,0.9119458749873774,0.9031893629964368,0.9390519187358916,0.8815419831443139,0.6450012202066217,0.4024648498524562,0.2950214012164902
0.1559809488917384,0.7655758038355119,0.9342218065622322,0.5673524242737517,0.0644168734491315,0.90336261738867,0.8895454940471018,0.930775018811136,0.8759754448028301,0.6391849019767347,0.397812879708384,0.2895246677179545
0.1552482139586004,0.7640492319435168,0.93359831657704,0.5685929907991316,0.0644168734491315,0.9021508633747348,0.8767706613365777,0.9217456734386756,0.8709291436895223,0.6362564060847637,0.3963895157090783,0.2895697229105655
0.1701776882212859,0.777597557484973,0.9319616553659108,0.5528791481443193,0.0735483870967741,0.908310612945572,0.873294516381333,0.9250062703787308,0.8721777130371451,0.6390628813145692,0.3989585141468496,0.295156566794323
0.1797032423520791,0.7903825970804313,0.9342997428103812,0.5405768634343017,0.0772208436724565,0.9165909320407956,0.8719040583992352,0.9258423208761808,0.8705649776297991,0.6380867160172456,0.399965283804895,0.2987609822031989
0.1816266715515662,0.789237668161435,0.9317278466214636,0.5400599607153933,0.0799007444168734,0.9142684035140866,0.8603458764230467,0.9122146977677452,0.8596399958381022,0.6304400878548767,0.395764624197188,0.2961928362243748
0.1797032423520791,0.7705371624844958,0.9181669394435352,0.5512250594438127,0.0875434243176178,0.8955871957992527,0.8401842356826279,0.8888888888888888,0.8439288315471856,0.6217359472870739,0.3919805589307412,0.2938950214012165
0.1789705074189412,0.760328212956779,0.9103733146286338,0.5572211309831488,0.0921091811414391,0.8851863071796424,0.8271486921004605,0.871582643591673,0.8323795650816773,0.6176685918815586,0.3928484638083666,0.2963730569948186
0.1930756548818465,0.7684381261330027,0.9050736497545008,0.5448154657293497,0.1031265508684863,0.8859941431889327,0.8283653428347961,0.8686564668505978,0.8306627822286964,0.6200276580167575,0.3990626627321646,0.3061500337913944
0.2014105147462905,0.7742581814712338,0.9026576260618814,0.5369585444019436,0.1090818858560793,0.8875088357063515,0.8287129573303206,0.8638073739653875,0.8261367183435647,0.6200683315708126,0.4035063357056067,0.3151610723135841
0.1961897783476827,0.7656712145787617,0.9000077936248149,0.5446087046417865,0.1079900744416873,0.8812481066343533,0.8176761970974189,0.8425716913301564,0.8120903131828114,0.6125437240706093,0.4022218364867211,0.3170984455958549
0.1849239787506869,0.7487835130235666,0.8958771724729171,0.5601157862090355,0.104516129032258,0.8696354640008078,0.8000347614495523,0.8087952512331744,0.7913848715014047,0.601602538029773,0.3976045825377539,0.3128632574904258
0.1801612016852903,0.7376204560633528,0.8908113163432312,0.5689031324304765,0.1052109181141439,0.8604463293951327,0.7876944468584339,0.7866399130507482,0.7753615648735824,0.5925323354754739,0.3942718278076723,0.3091236765037171
0.1898699395493679,0.7448716725503292,0.8884732288987608,0.5593921224025638,0.1118610421836228,0.8627688579218418,0.792908664291301,0.7898169049410584,0.7766621579440226,0.5939559098674042,0.3973268529769138,0.3127280919125929
0.194815900348049,0.7503100849155615,0.8886291013950587,0.5537061924945725,0.1144416873449131,0.8656972634555185,0.8009907013122447,0.7919906362344284,0.7779627510144627,0.5976572032864231,0.4004860267314702,0.3174588871367425
0.186847407950174,0.7438221543745827,0.8901878263580391,0.5616664943657603,0.1091811414392059,0.8633747349288095,0.794472929521161,0.7737647353900176,0.7643325356362501,0.5919222321646466,0.3970491234160736,0.3161973417436359
0.180069609818648,0.735998473428108,0.8894864001246979,0.5697301767807298,0.1059057071960297,0.8587296778753912,0.7796124098374903,0.7511077669091213,0.746852564769535,0.5825266411779061,0.3930567609789968,0.3115116017120973
0.1771386700860963,0.7383837420093503,0.8940846387654897,0.5701436989558565,0.1014392059553349,0.8629708169241643,0.7736160597896933,0.7345539670596103,0.7371241286026429,0.5763849345155779,0.3909737892726957,0.3090786213111061
0.1803443854185748,0.7416277072798397,0.8939287662691918,0.5665253799234984,0.1033250620347394,0.8645864889427446,0.7830885547927349,0.7315441852687902,0.7349911559671211,0.5762629138534126,0.3935427877104669,0.3129984230682586
0.1849239787506869,0.731991222211621,0.8822383290468396,0.5692132740618215,0.1132506203473945,0.8519640512975866,0.7963848092465456,0.7357244377560404,0.7354593694724795,0.577971203123729,0.3970144072209686,0.3175489975219644
0.181168712218355,0.719397004102662,0.8750681942171303,0.5781040008270444,0.1157320099255583,0.8405533676663637,0.7975145563570001,0.7289524287266951,0.72828009572365,0.5737004799479378,0.3951397326852977,0.3159270105879703
0.169078585821579,0.7107146264669403,0.8782635803912401,0.5896826217305903,0.1071960297766749,0.838028880137332,0.7879551577300772,0.710475712733049,0.7152741650192488,0.5638574798665907,0.3878840479083493,0.3076819103401667
0.163766257556329,0.7144356454536781,0.8857454602135453,0.5906130466246252,0.0995533498759305,0.844895486216298,0.7856087598852872,0.7034528885544686,0.7101758401831235,0.5595867566907996,0.3838916854712724,0.3038071637756251
0.1718263418208463,0.7237858982921478,0.8866027589431845,0.5811020365967124,0.1033250620347394,0.8504493587801677,0.801946641174937,0.7159936460162193,0.7162105920299657,0.5642642154071422,0.3890991147370248,0.3095291732372156
0.1736581791536911,0.7268390420761378,0.8875379939209727,0.5784141424583893,0.1037220843672456,0.8526709078057154,0.8181107152168244,0.726945907532815,0.7226615336593487,0.5696737980964777,0.3944454087831974,0.3155215138544717
0.1695365451547902,0.7255032916706422,0.889954017613592,0.5814121782280575,0.0999503722084367,0.8534787438150054,0.814721473885461,0.7198394783044896,0.7176152325460411,0.566582607988286,0.3923277208817914,0.3133588646091462
0.1598278072907125,0.7172979677511688,0.8915127425765724,0.5913367104310968,0.093697270471464,0.8501464202766837,0.8032501955331537,0.7057102248975837,0.7072625117053377,0.559139347596193,0.3855233466412082,0.3059247578283397
0.1564389082249496,0.7150081099131763,0.8925259138025096,0.5945415072883283,0.0912158808933002,0.8495405432697163,0.8023811592943426,0.7001086865646685,0.7044012069503693,0.5566175872447734,0.383058496788752,0.3029511151160171
0.1666056054222384,0.7240721305218968,0.8912789338321253,0.5837899307350356,0.0975682382133995,0.8535797233161668,0.8123750760406708,0.709472452136109,0.7098116741234003,0.5603188806637924,0.3869119944454088,0.3076368551475557
0.1698113207547169,0.730178418089877,0.8935390850284467,0.5787242840897343,0.0978660049627791,0.8582247803695849,0.8219344746675936,0.7157428308669843,0.714337738008532,0.5638574798665907,0.3895157090782851,0.310880829015544
0.1625755632899798,0.7245491842381453,0.895097809991427,0.5858575416106688,0.0929032258064516,0.8563061698475208,0.8205440166854957,0.7111445531310091,0.7109561960253876,0.561295045961116,0.3865995486894636,0.3071412480288353
0.1566220919582341,0.7163438603186719,0.8934611487802977,0.5937144629380751,0.0907196029776674,0.850954256285974,0.8113322325540974,0.6965136694256333,0.7040370408906461,0.5542178475555194,0.3817392813747614,0.3016895697229105
0.1595530316907858,0.7254078809273925,0.8983711324136855,0.5870981081360488,0.0891315136476426,0.8589316368777138,0.8050751716346571,0.692667837137363,0.702476329206118,0.5532416822581957,0.3813921194237111,0.301239017796801
0.1763143432863161,0.7470661196450721,0.9018003273322424,0.5659050966608085,0.0960794044665012,0.8725638695344844,0.8108108108108107,0.7048741744001338,0.7105920299656644,0.5607662897583992,0.3876410345426141,0.3084478486145528
0.1798864260853636,0.7483064593073182,0.8997739848803679,0.5632172025224853,0.0993548387096774,0.8719579925275169,0.8242808725123838,0.7216787893988796,0.7218291540942671,0.5690636947856503,0.3948272869293525,0.3159720657805812
0.1744825059534713,0.7358076519416087,0.8942405112617878,0.573038354181743,0.0999503722084367,0.861658083409068,0.8241070652646215,0.7244377560404648,0.723545936947248,0.5703245749613601,0.3947231383440375,0.3158369002027483
0.1659644623557427,0.7256941131571416,0.8931494037877016,0.583376408559909,0.0959801488833746,0.8557002928405534,0.8130703050317198,0.7144051500710642,0.7170429715950474,0.5647522980558041,0.3895157090782851,0.3093489524667718
0.1708188312877816,0.728938078427631,0.8916686150728703,0.578827664633516,0.0995533498759305,0.8564071493486821,0.8120274615451464,0.7120642086782042,0.7156383310789721,0.5630033352314325,0.387398021176879,0.306600585717504
0.1809855284850705,0.7380020990363515,0.8904216351024862,0.5681794686240049,0.1059057071960297,0.8603453498939715,0.8233249326496915,0.7237689156425048,0.7232337946103424,0.5684942650288782,0.3921541399062663,0.3127731471052039
0.1859314892837516,0.7442037973475814,0.8912789338321253,0.5620800165408869,0.1079900744416873,0.8641825709380995,0.834274789258712,0.7337179165621603,0.7311934242014358,0.5748393394614821,0.3973615691720187,0.3181797702185177
0.1806191610185015,0.7361892949146074,0.8891746551321018,0.5694200351493848,0.1064019851116625,0.8586286983742301,0.8308855479273486,0.72836719337848,0.7290084278430965,0.5738631741641584,0.3962506509286583,0.3151610723135841
0.174390914086829,0.7244537734948956,0.8849660977320551,0.5792411868086426,0.1057071960297766,0.8496415227708775,0.8181107152168244,0.7161608561157093,0.7216730829258142,0.5691043683397056,0.3911473702482208,0.3084929038071637
0.1759479758197472,0.7283656139681329,0.8868365676876315,0.5762431510389744,0.105409429280397,0.8529738463091991,0.8144607630138176,0.7149903854192793,0.7208407033607325,0.567924835272106,0.3900711681999653,0.3068258616805587
0.1842828356841912,0.731704989981872,0.8823942015431377,0.5697301767807298,0.1127543424317617,0.8518630717964252,0.8265403667332928,0.72819998327899,0.7283841431692852,0.5739038477182137,0.3948620031244576,0.3120522640234287
0.1884044696830921,0.72922431065738,0.8769386641727067,0.5686963713429132,0.1185111662531017,0.8470160557406846,0.83722951247067,0.7403227154920158,0.7357194880865675,0.5791914097453835,0.3988196493664295,0.3168731696328002
0.1805275691518593,0.71386318099418,0.8710934455615306,0.5815155587718391,0.1179156327543424,0.8351004746036554,0.8350569218736421,0.7404899255915058,0.7344188950161274,0.5768730171642398,0.3970491234160736,0.3140797476909214
0.1736581791536911,0.7047991603854594,0.8695347205985504,0.5903029049932803,0.1152357320099255,0.8292436635363022,0.825236812375076,0.7305409246718502,0.727759858495474,0.5719515171235663,0.3921541399062663,0.3080874070736653
0.1733834035537644,0.7072798397099513,0.8717169355467228,0.5890623384679003,0.1136476426799007,0.8319701100676562,0.823672547145216,0.7289524287266951,0.7267193840391218,0.5703245749613601,0.3908002082971706,0.3062401441766164
0.1805275691518593,0.7149126991699266,0.8720286805393189,0.5808952755091491,0.1173200992555831,0.8362112491164293,0.8362735726079777,0.7396538750940557,0.7347830610758507,0.5760595460831367,0.3954174622461379,0.3119621536382068
0.1823594064847041,0.7139585917374297,0.8696126568466994,0.5804817533340225,0.1198014888337468,0.834191659093204,0.846962718345355,0.7501045063121812,0.7418062636562273,0.5811437403400309,0.39986113521958,0.3162423969362469
0.177413445686023,0.7051808033584582,0.8666510794170369,0.5880285330300837,0.1190074441687344,0.8276279915177219,0.8414008864169635,0.7438341275813058,0.7369160337113724,0.577198405596681,0.3965630966846034,0.3121874296012615
0.1706356475544971,0.695067264573991,0.8641571194762684,0.5973327819704332,0.1169230769230769,0.8206604059375947,0.8222820891631181,0.726277067134855,0.7252627198002289,0.5688603270153746,0.391425099809061,0.3057445370578959
0.1703608719545704,0.6978341761282321,0.8666510794170369,0.5959888349012715,0.1152357320099255,0.8237907704735938,0.8157643173720344,0.7223476297968396,0.7219332015399023,0.5677621410558854,0.3900711681999653,0.3053840955170083
0.180069609818648,0.7099513405209427,0.8682877406281662,0.5838933112788173,0.1194044665012406,0.8312632535595273,0.8170678717302511,0.7332162862636904,0.7283321194464676,0.5731310501911657,0.3946884221489325,0.3116467672899301
0.1815350796849239,0.7124320198454346,0.8690671031096564,0.5817223198594025,0.1198014888337468,0.8329799050792688,0.8167202572347267,0.7339687317113953,0.7292685464571845,0.5730090295290002,0.3970144072209686,0.3148006307726965
0.1740245466202601,0.7032725884934644,0.8679759956355702,0.5909231882559701,0.1164267990074441,0.8274260325153994,0.8053358825063005,0.7202575035532146,0.720268442409739,0.567396079069389,0.393751084881097,0.3107456634377112
0.1613848690236307,0.6954489075469898,0.8723404255319148,0.6022950480719529,0.1066997518610421,0.8261132990003028,0.7866516033718606,0.7005267118133935,0.706950369368432,0.5580004880826487,0.3871202916160389,0.3034917774273485
0.1571716431580875,0.6995515695067265,0.8792767516171771,0.6025018091595162,0.1000496277915632,0.8328789255781076,0.7819588076822803,0.6933366775353231,0.7014878784725835,0.5546652566501261,0.3855580628363131,0.301329128182023
0.1618428283568418,0.7103329834939415,0.884108799002416,0.59402460456942,0.0995533498759305,0.8416641421791377,0.7922134353002519,0.7043725441016636,0.7067422744771616,0.55966810379891,0.3890991147370248,0.3061950889840054
0.1635830738230445,0.7101421620074421,0.8824721377912866,0.593094179675385,0.1014392059553349,0.8405533676663637,0.8038585209003215,0.7143215450213193,0.7124128602642806,0.5641015211909216,0.3923624370768964,0.310970939400766
0.1537827440923246,0.6929682282224978,0.8767827916764086,0.6078775974361625,0.0998511166253101,0.8277289710188831,0.801251412183888,0.7059610400468189,0.7075746540422433,0.5593020418124135,0.3882312098593994,0.3061500337913944
0.1427001282286132,0.6894380307222594,0.8833294365209259,0.6161480409386954,0.0896277915632754,0.8300514995455922,0.7876075432345528,0.6896580553465429,0.6955571740713765,0.5501911657040592,0.380940808887346,0.2969587744987609
0.1446235574281003,0.6967846579524855,0.8876938664172707,0.611082394293394,0.0878411910669975,0.8368171261233969,0.7845659163987138,0.6820499958197475,0.6905628966808866,0.5454730334336614,0.3776427703523694,0.2925884208154989
0.1550650302253159,0.7014597843717203,0.8826280102875848,0.6026051897032978,0.096774193548387,0.8360092901141069,0.7957764838793778,0.6911629462419531,0.6950889605660182,0.5481574880013015,0.3796215934733554,0.2970939400765938
0.157354826891372,0.6986928728174793,0.878419452887538,0.6028119507908611,0.1007444168734491,0.8317681510653336,0.8060311114973495,0.6996070562661986,0.6970658620330872,0.5507199219067762,0.3819128623502864,0.3011489074115792
0.1467301703608719,0.6841904398435263,0.8755358117060246,0.6166649436576037,0.096774193548387,0.8222760779561747,0.801251412183888,0.690912131092718,0.6904588492352514,0.5455950540958269,0.3780940808887346,0.2964181121874296
0.1372046162300787,0.6771300448430494,0.877951835398644,0.6258658120541714,0.0900248138957816,0.8201555084317882,0.788563483097245,0.6741911211437172,0.681406721464988,0.5376230375010168,0.3717410171845166,0.2897949988736202
0.1383953104964279,0.6831409216677798,0.8818486478060946,0.6219373513904684,0.0882382133995037,0.8258103604968191,0.7894325193360563,0.6685895828108017,0.6794298199979191,0.5361587895550314,0.3708383961117862,0.2880378463617932
0.1481040483605055,0.6962121934929874,0.884342607746863,0.6094283055928874,0.0919106699751861,0.8342926385943653,0.8017728339271748,0.6813811554217875,0.6865050463011134,0.541365004474091,0.3753862176705433,0.2928136967785537
0.1520424986261219,0.6999332124797253,0.8840308627542669,0.6051897032978394,0.0942928039702233,0.836110269615268,0.8123750760406708,0.6899088704957779,0.6920715846425971,0.5460424631904336,0.378927269571255,0.2976346023879252
0.1464553947609452,0.6936361034252457,0.883641181513522,0.611702677556084,0.0915136476426798,0.8325759870746239,0.8074215694794472,0.6843073321628627,0.6893663510560816,0.5440901325957862,0.3769484464502691,0.2966884433430953
0.136929840630152,0.6945902108577426,0.8923700413062114,0.616561563113822,0.0806947890818858,0.8386347571442997,0.7937777005301121,0.6710141292534068,0.6818749349703466,0.5378264052712927,0.3715674362089916,0.289930164451453
0.1425169444953288,0.7077568934261999,0.8984490686618346,0.6063268892794376,0.0799007444168734,0.8495405432697163,0.7903015555748675,0.6700944737062119,0.6808864842368121,0.5370536077442447,0.3708036799166812,0.2891642261770669
0.1520424986261219,0.7144356454536781,0.8957992362247682,0.5973327819704332,0.0867493796526054,0.8513581742906189,0.8015121230555314,0.6843073321628627,0.6874934970346479,0.5430732937444074,0.3762194063530637,0.295201621986934
0.1532331928924711,0.714149413223929,0.894552256254384,0.5967124987077432,0.0882382133995037,0.8504493587801677,0.8112453289302164,0.6921662068388931,0.6922796795338675,0.5473440169201985,0.3793785801076202,0.298715927010588
0.1475544971606521,0.7008873199122222,0.8885511651469099,0.607153933629691,0.0889330024813895,0.8395435726547511,0.8068132441122794,0.6858122230582726,0.6887420663822704,0.544008785487676,0.3760111091824336,0.2949763460238792
0.1380289430298589,0.69230035301975,0.8896422726209959,0.617181846376512,0.083076923076923,0.835706351610623,0.7946467367689232,0.6710977343031519,0.6807304130683592,0.5364841779874725,0.3697274778684256,0.2874521288578509
0.1389448616962813,0.7018414273447191,0.8966565349544073,0.6114959164685206,0.079106699751861,0.8452994042209431,0.7960371947510211,0.6676699272636067,0.6797939860576423,0.5339217440819979,0.3688595729908002,0.2866861905834647
0.1511265799596995,0.7133861272779316,0.8957212999766191,0.5983665874082498,0.0862531017369727,0.8508532767848126,0.8093334492048319,0.6787893988796924,0.6865050463011134,0.5402668185146018,0.3738934212810276,0.2931741383194413
0.154698662758747,0.7122411983589352,0.8918244875691684,0.5970226403390881,0.0907196029776674,0.8476219327476522,0.8208047275571392,0.689156425048073,0.6925918218707731,0.545106971447165,0.3776427703523694,0.2977247127731471
0.1473713134273676,0.6955443182902395,0.884342607746863,0.610151969399359,0.0915136476426798,0.8339897000908815,0.8189797514556357,0.6839729119638825,0.6900426594527105,0.5431139672984625,0.3754209338656484,0.2956071187204325
0.1389448616962813,0.6848583150462743,0.8827838827838828,0.6206967848650883,0.087940446650124,0.8273250530142382,0.8081167984704962,0.6715157595518769,0.6825512433669754,0.5376230375010168,0.3702482207950009,0.2894796125253435
0.140318739695915,0.6887701555195115,0.8848102252357571,0.6178021296392019,0.0874441687344912,0.8306573765525599,0.8089858347093073,0.6721009949000919,0.6820310061387993,0.5372163019604653,0.3691720187467454,0.2868664113539085
0.1517677230261952,0.7013643736284706,0.8853557789728003,0.6045694200351494,0.0932009925558312,0.8377259416338483,0.8230642217780482,0.6858122230582726,0.6901467068983457,0.5427885788660214,0.3740670022565527,0.292543365622888
0.1568052756915186,0.7075660719397004,0.8861351414542904,0.5982632068644681,0.0954838709677419,0.8415631626779763,0.8324498131572086,0.692417021988128,0.6952450317344709,0.5463678516228748,0.3778857837181045,0.2972741608470376
0.14828723209379,0.7004102661959737,0.8875379939209727,0.6070505530859093,0.089925558312655,0.8386347571442997,0.8274963065959849,0.6849761725608227,0.6895744459473521,0.5424225168795249,0.3738587050859226,0.292543365622888
0.1427001282286132,0.696307604236237,0.8889408463876548,0.6123229608187739,0.0860545905707196,0.8374230031303646,0.8183714260884679,0.6764484574868321,0.6831755280407867,0.5372976490685756,0.3685818434299601,0.2859653075016896
0.1471881296940831,0.7007919091689725,0.8887849738913569,0.6074640752610359,0.0886352357320099,0.8396445521559123,0.8180238115929434,0.6758632221386172,0.6830714805951514,0.5365655250955829,0.3673320604061795,0.2851092588420815
0.157721194357941,0.7129090735616831,0.889798145117294,0.5948516489196733,0.093697270471464,0.8467131172372008,0.8308855479273486,0.6899088704957779,0.6926958693164084,0.543235987960628,0.3727825030376671,0.29168731696328
0.1578127862245832,0.7099513405209427,0.8872262489283765,0.5964023570763982,0.0953846153846153,0.8434817732000403,0.840966368297558,0.6988546108184933,0.6985745499947977,0.5467745871634263,0.3761846901579587,0.2956972291056544
0.1474629052940098,0.7011735521419712,0.8887849738913569,0.6070505530859093,0.0887344913151364,0.8398465111582348,0.8373164160945511,0.691664576540423,0.6940484861096661,0.5433986821768486,0.3728519354278771,0.2919125929263347
0.1386700860963546,0.6925865852494991,0.8893305276284,0.6166649436576037,0.0835732009925558,0.835706351610623,0.8340140783870688,0.6834712816654126,0.6884299240453647,0.5397380623118848,0.3689984377712202,0.2878576255913494
0.1430664956951822,0.6929682282224978,0.8859013327098434,0.6139770495192804,0.0882382133995037,0.8336867615873976,0.8404449465542713,0.6894072401973079,0.6923837269795028,0.542707231757911,0.3722270439159869,0.290831268303672
0.1521340904927642,0.7017460166014694,0.8853557789728003,0.6041558978600228,0.0933995037220843,0.8379279006361708,0.8541757191274876,0.7072151157929939,0.7041931120590991,0.5518587814203205,0.3798993230341955,0.2994368100923631
0.1536911522256823,0.7066119645072035,0.8880056114098668,0.6006409593714462,0.0926054590570719,0.8421690396849439,0.8607803945424524,0.7158264359167295,0.7115284569763812,0.5580818351907589,0.3845860093733727,0.3061049785987835
0.1455394760945227,0.7013643736284706,0.8906554438469332,0.6080843585237259,0.0865508684863523,0.8411592446733314,0.8495698270617885,0.707382325892484,0.7065862033087088,0.5538111120149678,0.3815657003992363,0.3029511151160171
0.1358307382304451,0.7024138918042172,0.8997739848803679,0.6129432440814638,0.0754342431761786,0.8476219327476522,0.8317545841661597,0.689156425048073,0.697482051815628,0.5470593020418124,0.3756639472313835,0.2961928362243748
0.1295108994321304,0.7247400057246446,0.923466604317668,0.6044660394913678,0.0569727047146401,0.8747854185600323,0.829668897193013,0.6934202825850682,0.7041931120590991,0.5528756202716993,0.3784412428397848,0.2954268979499888
0.1359223300970873,0.7583245873485356,0.94544462629569,0.5825493642096558,0.0464516129032258,0.906795920428153,0.8418354045363692,0.7222640247470947,0.7279679533867444,0.5737818270560482,0.393646936295782,0.3054742059022302
0.1442571899615314,0.7777883789714722,0.9541734860883796,0.5673524242737517,0.0453598014888337,0.9227506816116328,0.8311462587989918,0.7324638408159853,0.7399334096347936,0.5920849263808672,0.4144419371636869,0.3238116692948862
0.1598278072907125,0.7749260566739816,0.9385862364585768,0.5601157862090355,0.0637220843672456,0.9111380389780874,0.7848266272703571,0.7016971825098236,0.7293725939028197,0.6034328479622549,0.4394375976392988,0.3513403919801757
0.1882212859498076,0.780364469039214,0.9188683656768762,0.5411971466969916,0.0916129032258064,0.9012420478642836,0.7294690188580862,0.6634896747763565,0.720372489855374,0.6216139266249084,0.4746051032806804,0.3916647893669745
0.2480307748671917,0.7983970995134053,0.8827059465357336,0.4975705572211309,0.1470967741935483,0.8874078562051904,0.6919266533414443,0.7009447370621185,0.7755696597648528,0.6886439437078012,0.538899496615171,0.455012390177968
0.355925993771753,0.843430970327259,0.8276050190943808,0.4122816086012612,0.2406947890818858,0.8754922750681612,0.6386547319023202,0.7804531393696179,0.8732181874934971,0.7984218661026601,0.6448186078805763,0.5623338589772471
0.4979849789338706,0.909550615399294,0.7608136544306757,0.2962886384782384,0.3600992555831265,0.8672119559729374,0.540888155036065,0.8281080177242705,0.9394964103631256,0.903440982673066,0.778927269571255,0.7077269655327777
0.6379373511632167,0.9130808128995326,0.6446107084404957,0.2154450532409799,0.5099751861042183,0.7937998586286983,0.4151386112800903,0.8173229663071649,0.9381958172926856,0.957048726917758,0.88401319215414,0.8311331380941654
0.7979483421872138,0.8942848964793436,0.4931026420388122,0.1353251318101932,0.6931017369727046,0.6857517923861456,0.2580168593030328,0.7263606721846,0.8520445323067319,0.929472057268364,0.9190765492102064,0.9045280468574004
0.9081333577578312,0.8952390039118406,0.4001246979970383,0.0725731417347254,0.8121091811414392,0.6259719276986772,0.1438254975232467,0.5734470362009866,0.6883258765997294,0.792036118116001,0.829161603888214,0.8738004054967335
0.9246198937534348,0.8850300543841237,0.3777569947782714,0.0688514421585857,0.8352357320099255,0.6060789659699082,0.0930737811766749,0.383579968230081,0.4797107481011341,0.5787033270967218,0.6363825724700574,0.7379589997747241
0.8576662392379557,0.7002194447094744,0.2837658795105603,0.2067610875633205,0.858759305210918,0.4473391901444006,0.1946641174936994,0.3073321628626368,0.3253043387784829,0.3725290815911494,0.4172192327720883,0.5410227528722685
0.7051657812786224,0.3988169067837038,0.1673291247759333,0.4561149591646851,0.8503225806451612,0.2124608704433,0.3971495611366993,0.273555722765655,0.2127250026011861,0.1997884975189132,0.2188161777469189,0.3295336787564767
0.5171276790620992,0.2297490697452533,0.1891512742576572,0.6538819394190013,0.7344913151364764,0.1371301625769968,0.5442773963674284,0.1803360922999748,0.1043075642492976,0.0692670625559261,0.0837354625932997,0.1726514980851543
0.3677413445686022,0.1474095983207709,0.2490842490842491,0.78269409697095,0.6154838709677419,0.1323841260224174,0.6680281567741374,0.1550873672769834,0.0691395276245968,0.0178963637842674,0.0202742579413296,0.0830817751745888
0.2586554313976918,0.1403492033202938,0.3361390382666978,0.848133981184741,0.5009429280397022,0.1849944461274361,0.738159381246198,0.1612741409581139,0.0931224638435126,0.0359147482307004,0.0151709772608922,0.0432079297138995
0.1676131159553031,0.1639156569029672,0.4328579222196243,0.8867983045590819,0.3899751861042184,0.260224174492578,0.7653602155209871,0.1706379065295543,0.132972635521798,0.0771170584885707,0.0363131400798472,0.0330705113764361
0.0860963546437076,0.1931113443373723,0.5261476112539942,0.9169854233433268,0.2864516129032257,0.3360597798646874,0.7796124098374903,0.2007357244377559,0.185360524399126,0.1253965671520377,0.0655788925533761,0.0348276638882631
0.0527569151859314,0.2617116687338994,0.6104746317512274,0.8985836865501913,0.2146898263027295,0.4269413309098253,0.8081167984704962,0.2840063539837805,0.2758818021017584,0.2005612950459611,0.1162645374067002,0.0657355260193737
0.0494596079868107,0.3793531151607672,0.7093757306523264,0.8366587408249767,0.1498759305210918,0.5533676663637281,0.8341009820109497,0.3987960872836719,0.3888773280615961,0.293378345399821,0.1821905919111265,0.1179094390628519
0.0733650851804359,0.4930827211143975,0.7819343776790585,0.7616044660394914,0.1166253101736972,0.6605069170958295,0.8331450421482576,0.4894239612072568,0.4846530017688066,0.3730985113479216,0.2416594341260198,0.171164676728993
0.1064297490382853,0.5764717107146264,0.8219156729795027,0.6977152899824254,0.1090818858560793,0.7304857114005856,0.8239332580168593,0.5522949586155004,0.5561856206430132,0.4328479622549419,0.2881444193716369,0.2142824960576706
0.1158637113024363,0.6350539070699361,0.861741095783649,0.6607050553085909,0.088833746898263,0.7873371705543775,0.8120274615451464,0.6040464844076582,0.6120590989491209,0.4779549337021069,0.3211942371116126,0.2430277089434557
0.1174207730353544,0.6622459688960978,0.8827059465357336,0.6450945931975601,0.0763275434243175,0.8153084923760476,0.8044668462674893,0.6412507315441853,0.6488918947039851,0.506101033108273,0.3402534282242667,0.2583014192385672
0.1241069793002381,0.681232706802786,0.8924479775543604,0.6310348392432544,0.0737468982630272,0.8316671715641725,0.7990788215868602,0.6575537162444612,0.6660597232337946,0.5207841861221834,0.3491407741711508,0.2660058571750394
0.1318922879648287,0.6949718538307413,0.8970462161951523,0.6191460767083635,0.0750372208436724,0.8419670806826214,0.8074215694794472,0.6768664827355572,0.6825512433669754,0.5326608639062881,0.3580628363131401,0.2747465645415634
0.1294193075654881,0.6944948001144929,0.8987608136544307,0.6208001654088701,0.0726550868486352,0.8427749166919114,0.819153558703398,0.6871499038541927,0.6913952762459682,0.5404701862848775,0.3631661169935775,0.2793421941878801
0.1167796299688587,0.6839042076137773,0.900865092354454,0.6337227333815776,0.0644168734491315,0.8385337776431385,0.8164595463630833,0.6864810634562327,0.6926438455935907,0.5415276986903116,0.3622634959208471,0.2764586618607794
0.1096354643707638,0.6760805266673028,0.900631283610007,0.6419931768841104,0.0606451612903225,0.834191659093204,0.813244112279482,0.6876515341526628,0.6926438455935907,0.5407955747173188,0.3605624023607013,0.2740256814597882
0.1111009342370397,0.6902013166682569,0.9109188683656768,0.6335159722940142,0.0548883374689826,0.8483287892557811,0.8205440166854957,0.6967644845748683,0.7003953802934139,0.5459204425282681,0.3647630619684082,0.2780355936021627
0.1247481223667338,0.7112870909264384,0.9164523419842568,0.6143905716944071,0.0587593052109181,0.8631727759264869,0.8379247414617189,0.7164116712649444,0.715118093850796,0.5571056698934354,0.3743447318173928,0.2883081775174589
0.1231910606338157,0.71691632477817,0.922297560595433,0.6122195802749922,0.0541935483870967,0.8698374230031304,0.8505257669244807,0.7292868489256751,0.7253667672458641,0.5657284633531278,0.3792049991320951,0.2937598558233836
0.1127495878366001,0.7063257322774545,0.92253136933988,0.6239015817223199,0.0484367245657567,0.8644855094415832,0.846962718345355,0.7226820499958196,0.7217771303714494,0.5626372732449362,0.3756292310362784,0.2876774048209056
0.1072540758380655,0.6966892472092358,0.9194918556620684,0.6321720252248526,0.0474441687344912,0.8574169443602948,0.8449639349960892,0.7148231753197892,0.7171470190406826,0.5579191409745383,0.3717063009894116,0.2811444018923181
0.1149477926360139,0.7064211430207042,0.9207388356324526,0.6225576346531583,0.050818858560794,0.8633747349288095,0.8528721647692709,0.7190034278070396,0.7201643949641037,0.5596274302448548,0.3728519354278771,0.2813246226627618
0.1214508151676131,0.7222593264001527,0.928220715454758,0.6103587304869224,0.0495285359801488,0.8766030495809349,0.8707743112887807,0.7332162862636904,0.7292165227343669,0.5660945253396241,0.3775733379621594,0.287362018472629
0.1199853453013372,0.7229272016029005,0.9300911854103344,0.610772252662049,0.0475434243176178,0.878117742098354,0.8864169635873815,0.7422456316361509,0.7355113931952971,0.5706499633938014,0.380940808887346,0.2896598332957873
0.1068877083714966,0.7054670355882072,0.9268957992362248,0.6276232812984597,0.0424813895781637,0.8668080379682924,0.888937168679934,0.7372293286514505,0.732233898657788,0.5681282030423819,0.3780940808887346,0.2862356386573553
0.1065213409049276,0.6992653372769774,0.9221416880991348,0.6311382197870361,0.0453598014888337,0.8604463293951327,0.8826801077604935,0.7309589499205752,0.7289564041202788,0.5653217278125763,0.3753167852803333,0.2830367199819779
0.1199853453013372,0.7147218776834272,0.92331073182137,0.6152176160446604,0.0518114143920595,0.8693325254973241,0.885982445467976,0.7390686397458406,0.7353032983040267,0.5690636947856503,0.3784759590348898,0.2861905834647443
0.1296940831654149,0.734185669306364,0.9309484841399736,0.599193631758503,0.0523076923076922,0.884580430172675,0.8948466151038498,0.7575453557394867,0.7473207782748934,0.5779305295696737,0.3856969276167332,0.2932191935120523
0.128228613299139,0.732945329644118,0.9311822928844206,0.6007443399152279,0.0513151364764268,0.8840755326668687,0.8983227600590944,0.7701697182509823,0.7544480283009053,0.5826893353941267,0.3886130880055546,0.2969587744987609
0.1180619161018501,0.7199694685621602,0.9292338866806952,0.6134601468003722,0.0470471464019851,0.8759971725739675,0.8834622403754236,0.7597190870328567,0.7487774425137864,0.5766289758399089,0.3839958340565874,0.2924532552376661
0.1136655065030225,0.715389752886175,0.9292338866806952,0.6184224129018918,0.0446650124069478,0.873573664546097,0.8680802989484662,0.747094724521361,0.7437311414004787,0.5731310501911657,0.3820170109356015,0.2891642261770669
0.1198021615680527,0.7264573991031391,0.9329748265918476,0.608911402873979,0.0456575682382133,0.8818539836413207,0.8681672025723471,0.7480143800685561,0.7469566122151702,0.5755307898804197,0.3835445235202222,0.2917774273485019
0.1296940831654149,0.7383837420093503,0.93437767905853,0.5969192597953066,0.0500248138957816,0.8891245077249318,0.8680802989484662,0.7577961708887216,0.7544480283009053,0.5817538436508582,0.3887172365908697,0.2984005406623113
0.1296024912987726,0.7346627230226124,0.9313381653807186,0.5989868706709397,0.0520099255583126,0.8850853276784812,0.8481793690796906,0.7585486163364267,0.7553324315888046,0.5835028064752299,0.3906266273216456,0.3007434106780807
0.1193442022348415,0.7229272016029005,0.9305588028992284,0.611082394293394,0.0469478908188585,0.8784206806018378,0.8160250282436777,0.7404899255915058,0.7450837581937364,0.5756528105425852,0.385141468495053,0.2920477585041676
0.1132075471698113,0.7186337181566644,0.9322734003585068,0.6168717047451671,0.0424813895781637,0.8773099060890639,0.7955157730077344,0.7249393863389348,0.7367599625429196,0.5699585129748637,0.3804894983509808,0.285604865960802
0.1184282835684191,0.7283656139681329,0.9357805315252123,0.6087046417864157,0.043076923076923,0.8846814096738361,0.7977752672286433,0.7296212691246551,0.7412340027052337,0.5738225006101033,0.3825377538621767,0.2896147781031764
0.1292361238322036,0.7410552428203416,0.9369495752474476,0.5956786932699266,0.0481389578163771,0.8921538927597696,0.8077691839749718,0.7420784215366607,0.7507023202580377,0.5810623932319205,0.387328588786669,0.2958774498760982
0.1305184099651951,0.7375250453201031,0.9329748265918476,0.5969192597953066,0.0514143920595533,0.8877107947086741,0.8152428956287476,0.7508569517598863,0.7553324315888046,0.5842756040022777,0.3898628710293352,0.2976796575805361
0.1198937534346949,0.7227363801164012,0.9299353129140364,0.6109790137496123,0.0476426799007444,0.8779157830960315,0.8060311114973495,0.7427472619346208,0.7514306523774842,0.580086227934597,0.3859052247873634,0.2908763234962829
0.1150393845026561,0.7231180230893999,0.93437767905853,0.6134601468003722,0.0420843672456575,0.8809451681308693,0.7957764838793778,0.7382325892483906,0.7470086359379877,0.5759375254209713,0.3814268356188162,0.2845235413381392
0.1192526103681993,0.731704989981872,0.9378068739770868,0.6064302698232192,0.0421836228287841,0.8877107947086741,0.8016859303032936,0.7458406487751861,0.751586723545937,0.5795574717318799,0.3823641728866516,0.2853795899977472
0.1288697563656347,0.740291956874344,0.9366378302548516,0.5964023570763982,0.0481389578163771,0.8915480157528022,0.814721473885461,0.7648189950673021,0.7646446779731558,0.5894411453672822,0.3893074119076549,0.2924532552376661
0.1307931855651218,0.7387653849823491,0.933754189073338,0.5960922154450532,0.0510173697270471,0.8889225487226093,0.819153558703398,0.7763564919321126,0.7726563312870669,0.5948507280566177,0.3924318694671064,0.2948862356386574
0.1197105697014105,0.7285564354546322,0.9348452965474242,0.6078775974361625,0.0443672456575682,0.8841765121680298,0.808725123837664,0.7717582141961374,0.771199667048174,0.5926136825835842,0.3891685471272348,0.2898400540662311
0.1171459974354277,0.7232134338326496,0.9327410178474008,0.6122195802749922,0.0442679900744416,0.8799353731192567,0.8032501955331537,0.7707549535991974,0.7710435958797213,0.59021394289433,0.3866689810796737,0.2866861905834647
0.1239237955669536,0.7352351874821105,0.9367937027511496,0.6018815258968262,0.0454590570719603,0.8890235282237705,0.8088989310854263,0.7794498787726779,0.7778587035688274,0.5937525420971285,0.3886478042006596,0.2889840054066231
0.1303352262319106,0.7475431733613206,0.9413140051437924,0.5915434715186602,0.0460545905707196,0.8984146218317681,0.8214999565481881,0.7973413594181089,0.7914889189470399,0.6027007239892621,0.3943759763929874,0.2952466771795449
0.1275874702326433,0.7464936551855739,0.9428727301067727,0.5937144629380751,0.0434739454094292,0.8989195193375744,0.830451029807943,0.8136443441183847,0.8022058058474665,0.6092084926380867,0.3976392987328589,0.2980851543140347
0.1187030591683458,0.7338040263333652,0.9399890889252592,0.605603225472966,0.0405955334987593,0.8902352822377056,0.8262796558616493,0.8145639996655798,0.8037665175319946,0.6087204099894249,0.3941676792223572,0.2932191935120523
0.1130243634365268,0.728938078427631,0.9408463876548984,0.6114959164685206,0.0369230769230769,0.8883166717156417,0.8208916311810203,0.8136443441183847,0.8033503277494538,0.6078255918002116,0.3900364520048603,0.2883081775174589
0.1180619161018501,0.7436313328880833,0.9485620762216508,0.6006409593714462,0.0347394540942928,0.9010400888619612,0.8298427044407752,0.8298637237689156,0.8138070960357924,0.6134792158138778,0.3923971532720014,0.2897949988736202
0.125206081699945,0.7636675889705182,0.9588496609773204,0.5857541610668872,0.0320595533498759,0.9183075835605372,0.8467889110975927,0.8521862720508319,0.827957548642181,0.6227527861384528,0.3980558930741191,0.2954268979499888
0.1220003663674665,0.7639538212002672,0.9618112384069832,0.5874082497673938,0.0283870967741935,0.9204281530849238,0.8539150082558442,0.8642253992141125,0.836489439184268,0.6261693646790857,0.3989237979517445,0.2958774498760982
0.1105513830371862,0.7562255509970424,0.9651624970773904,0.5980564457769048,0.0201488833746898,0.9184085630616984,0.8435734770139915,0.8620516679207424,0.8356050358963688,0.6224680712600666,0.3943759763929874,0.2900653300292858
0.1117420773035354,0.7627134815380212,0.9694489907255864,0.5939212240256384,0.0179652605459056,0.9246692921336968,0.832015295037803,0.8564501295878271,0.8332119446467591,0.6191735133815993,0.3908349244922757,0.2858301419238567
0.1244733467668071,0.780650701268963,0.9733458031330372,0.5769668148454461,0.0224317617866005,0.9366858527718872,0.8328843312766141,0.8658138951592675,0.8395588388305067,0.6229968274627837,0.3929526123936817,0.2887136742509574
0.1351895951639494,0.7934357408644215,0.9746707193515703,0.5640442468727385,0.027394540942928,0.944259315358982,0.8444425132528026,0.8851266616503637,0.8516283425241911,0.6304400878548767,0.3990626627321646,0.2956071187204325
0.1366550650302253,0.7891422574181854,0.9699166082144808,0.5654915744856818,0.0312655086848635,0.938907401797435,0.8503519596767185,0.8947412423710392,0.8565185724690458,0.6336532986252338,0.4005901753167853,0.296102725839153
0.1253892654332295,0.7763572178227269,0.9690593094848414,0.578827664633516,0.0257071960297766,0.931636877713824,0.8413139827930826,0.8854610818493437,0.8522006034751847,0.6293825754494428,0.3962506509286583,0.2910565442667268
0.128594980765708,0.785230416944948,0.9735796118774842,0.572107929287708,0.024516129032258,0.93931131980208,0.8281046319631528,0.8760137112281582,0.8494953698886692,0.6266167737736923,0.3941676792223572,0.289029060599234
0.1442571899615314,0.807079477149127,0.978099914270127,0.5515352010751576,0.0300744416873449,0.953751388468141,0.8281915355870341,0.8837889808544436,0.8552700031214234,0.6320670300170829,0.3989932303419545,0.2962378914169858
0.1623923795566953,0.8304551092453011,0.9816849816849816,0.5285847203556291,0.0376178660049627,0.9684943956376856,0.8302772225601808,0.8940724019730791,0.861512849859536,0.6382900837875213,0.4062141989237979,0.305699481865285
0.166788789155523,0.8274019654613111,0.9756059543293588,0.5277576760053757,0.0438709677419354,0.962940523073816,0.8309724515512297,0.8985034696095644,0.8625533243158882,0.6396323110713414,0.4090956431175143,0.311736877675152
0.163033522623191,0.8125178895143594,0.9665653495440728,0.5378889692959785,0.0476426799007444,0.9491063314147228,0.8187190405839923,0.8852938717498537,0.8524086983664552,0.6335719515171235,0.4067349418503733,0.3115116017120973
0.1688954020882945,0.8108959068791146,0.9602525134440028,0.5355112167890003,0.0548883374689826,0.944259315358982,0.8041192317719649,0.8661483153582477,0.8407553844553117,0.6272268770845196,0.4044783891685471,0.3111511601712097
0.1850155706173291,0.8143306936361036,0.9493414387031408,0.5245528791481443,0.070471464019851,0.9390083812985964,0.8067263404883983,0.8631385335674275,0.8385183643741546,0.62865045147645,0.4091303593126194,0.3188105429150709
0.1991207180802345,0.8195782845148365,0.9416257501363884,0.51369792205107,0.083076923076923,0.9366858527718872,0.8168940644824889,0.8665663406069727,0.8398189574445948,0.6328805010981859,0.4161083145287277,0.3285424645190358
0.1991207180802345,0.8117546035683618,0.9351570415400202,0.5180399048898997,0.0872456575682381,0.9284055336766636,0.8180238115929434,0.8576206002842572,0.8327957548642182,0.6308061498413732,0.4181565700399237,0.3331831493579635
0.1917017768822128,0.7899055433641828,0.9237004130621153,0.5339605086322754,0.0905210918114143,0.909421387458346,0.8086382202137828,0.8375553883454561,0.8187493497034649,0.6221020092735703,0.4141294914077417,0.3291732372155891
0.1924345118153508,0.7792195401202177,0.9143480632842336,0.5394396774527034,0.0968734491315136,0.8977077653236393,0.8052489788824194,0.8203327480979851,0.8053792529393403,0.6135605629219881,0.4099288318000348,0.3250281594953818
0.2007693716797948,0.7879019177559393,0.9143480632842336,0.5299286674247906,0.1013399503722084,0.9022518428758962,0.8161119318675589,0.8137279491681296,0.799240453646863,0.6120963149760026,0.4111438986287103,0.3274160847037621
0.2051657812786224,0.7915275259994276,0.9135687008027432,0.5255866845859609,0.1042183622828784,0.903665555892154,0.8370557052229078,0.8149820249143048,0.7978358131307877,0.6133978687057675,0.4145113695538969,0.3329128182022978
0.1992123099468767,0.7774067359984735,0.9070999922063752,0.5365450222268169,0.1051116625310173,0.8920529132586085,0.853654297384201,0.8118050330239946,0.7937259390281969,0.6126657447327748,0.4158653011629926,0.3348501914845686
0.1874885510166697,0.7549852113347963,0.8987608136544307,0.5552569006512974,0.1040198511166252,0.8747854185600323,0.8527852611453897,0.7960036786221888,0.7806159608781605,0.603961604164972,0.4108661690678702,0.3293084027934219
0.1885876534163766,0.7441083866043317,0.8890187826358039,0.5606326889279437,0.1108684863523573,0.8626678784206806,0.8455722603632571,0.7833793161106931,0.768442409738841,0.596274302448548,0.4067696580454782,0.3255237666141023
0.2026928008792819,0.7506917278885603,0.8823942015431377,0.5490540680243978,0.1227791563275434,0.8619610219125518,0.8448770313722082,0.782794080762478,0.7657371761523255,0.595745546245831,0.4076722791182087,0.3289029060599234
0.2103865176772302,0.753554050186051,0.8781077078949419,0.5431613770288433,0.1296277915632754,0.8606482883974552,0.8507864777961242,0.7898169049410584,0.7667776506086776,0.5967623850972098,0.4102759937510849,0.3338589772471277
0.2039750870122733,0.7342810800496137,0.8678201231392719,0.5572211309831488,0.1327047146401984,0.8437847117035242,0.8481793690796906,0.7896496948415683,0.7618874206638228,0.5936711949890181,0.4097552508245096,0.3335435908988511
0.1884960615497343,0.7161530388321725,0.8661834619281427,0.5757262483200661,0.1253598014888337,0.8330808845804302,0.8272355957243417,0.7669927263606722,0.7457600665903652,0.5824452940697958,0.4019441069258809,0.3255237666141023
0.1809855284850705,0.7092834653181949,0.8669628244096329,0.583686550191254,0.1207940446650124,0.8300514995455922,0.8088120274615451,0.7445865730290109,0.731297471647071,0.5728056617587245,0.3949314355146676,0.3182698806037395
0.18382487635098,0.7154851636294247,0.8696126568466994,0.5787242840897343,0.1205955334987592,0.8349994951024942,0.8088989310854263,0.7400719003427806,0.729476641348455,0.5709753518262426,0.3949314355146676,0.3180446046406848
0.1876717347499542,0.7194924148459118,0.8696126568466994,0.5744856817946862,0.1227791563275434,0.8371200646268807,0.8160250282436777,0.744252152830031,0.7311934242014358,0.5731310501911657,0.3976045825377539,0.320522640234287
0.1820846308847774,0.7119549661291862,0.8682098043800172,0.5816189393156207,0.1205955334987592,0.8322730485711399,0.8108977144346918,0.7356408327062954,0.7258870044740402,0.5704059220694704,0.3946189897587225,0.3174588871367425
0.1646821762227514,0.6870527621410172,0.8625983945132881,0.604982942210276,0.1147394540942927,0.8154094718772089,0.7969062309898323,0.7164952763146895,0.7134533347206327,0.560481574880013,0.3857663600069433,0.3079972966884433
0.1547902546253892,0.6770346340997997,0.8629101395058841,0.615941279851132,0.1091811414392059,0.8103604968191456,0.7870861214912661,0.7006939219128835,0.7038809697221934,0.5523875376230375,0.3802812011803507,0.3002928587519711
0.1595530316907858,0.6868619406545178,0.8668069519133349,0.6079809779799441,0.1092803970223325,0.8180349389074019,0.788563483097245,0.6979349552712983,0.7019560919779421,0.5514113723257138,0.3792744315223052,0.2993016445145303
0.166422421688954,0.6939223356549948,0.8668069519133349,0.6003308177401013,0.1130521091811414,0.8217711804503685,0.7998609542017903,0.7030348633057437,0.7037769222765581,0.5528756202716993,0.3798993230341955,0.3016445145302996
0.1564389082249496,0.6819959927487835,0.8655599719429508,0.6123229608187739,0.1083870967741935,0.8146016358679188,0.8054227861301817,0.7012791572610986,0.7012277598584956,0.5499471243797283,0.3776080541572644,0.2970488848839829
0.1389448616962813,0.6599561110581051,0.86244252201699,0.634239636100486,0.1009429280397022,0.8009694032111481,0.798991917962979,0.6869826937547027,0.693008011653314,0.5436020499471244,0.3727825030376671,0.2902906059923406
0.1327166147646089,0.660337754031104,0.8679759956355702,0.6375478135014989,0.0939950372208436,0.8047056447541149,0.7938646041539932,0.6772009029345373,0.6882738528769119,0.5395346945416091,0.3697969102586357,0.287271908087407
0.1382121267631434,0.6761759374105525,0.8763151741875146,0.6258658120541714,0.0916129032258064,0.8185398364132082,0.8008168940644824,0.6841401220633726,0.6936843200499428,0.544578215244448,0.3744141642076029,0.2927686415859428
0.1441655980948891,0.6912508348440035,0.8835632452653729,0.6142871911506255,0.0902233250620347,0.8311622740583662,0.8145476666376987,0.6969316946743583,0.7027884715430236,0.5527535996095339,0.3813226870335012,0.3005631899076368
0.1416010258289063,0.6871481728842669,0.8823942015431377,0.6179055101829836,0.0896277915632754,0.8282338685246894,0.8140262448944121,0.6970989047738484,0.704713349287275,0.5542585211095745,0.3820170109356015,0.3020049560711872
0.1294193075654881,0.6750310084915562,0.8828618190320319,0.6313449808745994,0.0827791563275434,0.8221750984550136,0.8016859303032936,0.6837220968146476,0.6967537196961815,0.5473846904742536,0.3761846901579587,0.295156566794323
0.1269463271661476,0.6807556530865376,0.8896422726209959,0.6296908921740928,0.07712158808933,0.8296475815409471,0.7934300860345875,0.6756960120391271,0.6912392050775154,0.5435613763930692,0.3721576115257768,0.2901554404145077
0.1394028210294925,0.6946856216009923,0.8904216351024862,0.6151142355008787,0.0832754342431761,0.8375239826315257,0.7989050143390979,0.6851433826603126,0.6959213401310999,0.5480354673391361,0.3763582711334838,0.2944356837125478
0.1503022531599194,0.7068981967369526,0.8911230613358272,0.6023984286157344,0.088833746898263,0.8443905887104917,0.8077691839749718,0.6980185603210434,0.7062740609718032,0.5556820955015049,0.3824683214719667,0.3015544041450777
0.1473713134273676,0.7035588207232134,0.8908892525913802,0.6058099865605292,0.0873449131513647,0.8424719781884277,0.805770400625706,0.7012791572610986,0.7075226303194257,0.5572683641096559,0.383266793959382,0.301329128182023
0.1375709836966477,0.6886747447762618,0.8870703764320785,0.6193528377959269,0.0844665012406947,0.8320710895688174,0.7956895802554966,0.689825265446033,0.7004474040162314,0.5504758805824453,0.3783370942544697,0.2947961252534354
0.1398607803627037,0.6889609770060109,0.8853557789728003,0.6179055101829836,0.0867493796526054,0.8311622740583662,0.7890849048405318,0.6830532564166876,0.6972219332015399,0.5488896119742943,0.3769484464502691,0.2924532552376661
0.1514929474262685,0.7046083388989601,0.8882394201543138,0.6029153313346428,0.0912158808933002,0.8413612036756537,0.7954288693838533,0.6911629462419531,0.7036208511081053,0.5550313186366225,0.3821558757160215,0.2979499887362019
0.1582707455577944,0.7150081099131763,0.8909671888395293,0.59340432130673,0.0932009925558312,0.8486317277592649,0.804988268010776,0.7032856784549787,0.7116325044220164,0.5619864963800537,0.3886478042006596,0.3058797026357288
0.153965927825609,0.7072798397099513,0.8883173564024628,0.600124056652538,0.0926054590570719,0.8427749166919114,0.8060311114973495,0.707382325892484,0.714337738008532,0.5646302773936387,0.3900017358097553,0.3080874070736653
0.1451731086279538,0.692014120790001,0.8833294365209259,0.6133567662565904,0.0909181141439205,0.8314652125618499,0.7988181107152167,0.6976005350723183,0.709187389449589,0.560481574880013,0.3863565353237285,0.3029961703086281
0.1457226598278072,0.6917278885602519,0.8826280102875848,0.6131500051690272,0.0917121588089329,0.8308593355548822,0.7953419657599722,0.691748181590168,0.7051815627926336,0.5572683641096559,0.3842388474223225,0.3002478035593602
0.1594614398241436,0.7067073752504532,0.8831735640246279,0.5972294014266515,0.0988585607940446,0.839139654650106,0.8041192317719649,0.6997742663656884,0.7103319113515764,0.5623932319206052,0.3877798993230342,0.306600585717504
0.1674299322220186,0.7172979677511688,0.8850440339802041,0.5870981081360488,0.1019354838709677,0.8460062607290719,0.81698096810637,0.7144887551208093,0.7178233274373115,0.5690636947856503,0.3935080715153619,0.3125478711421491
0.1623923795566953,0.7105238049804409,0.8837970540098199,0.5935077018505117,0.1000496277915632,0.8415631626779763,0.8178500043451812,0.7159100409664744,0.7181874934970347,0.5693077361099813,0.3939593820517272,0.3128182022978148
0.154698662758747,0.6977387653849825,0.8799002416023693,0.6048795616664944,0.0982630272952853,0.8322730485711399,0.8105500999391675,0.7047069643006437,0.7127770263240039,0.5637761327584805,0.38948099288318,0.307411579184501
0.1535995603590401,0.6947810323442419,0.8784973891356871,0.6070505530859093,0.098560794044665,0.8298495405432696,0.8095941600764751,0.7016971825098236,0.7100717927374884,0.561254372407061,0.3877451831279292,0.3055643162874521
0.1638578494229712,0.7078523041694494,0.8803678590912634,0.5941279851132016,0.1029280397022332,0.8379279006361708,0.8209785348049012,0.7118969985787141,0.7160545208615129,0.5658098104612381,0.3916681131747961,0.3105654426672674
0.171368382487635,0.71386318099418,0.878887070376432,0.5866845859609221,0.1079900744416873,0.8401494496617186,0.8340140783870688,0.7244377560404648,0.7243783165123296,0.5718294964614008,0.3971532720013887,0.3162874521288579
0.1639494412896134,0.700314855452724,0.8741329592393422,0.5982632068644681,0.1069975186104218,0.8298495405432696,0.8351438254975232,0.7256082267368948,0.7241702216210593,0.5709346782721875,0.3961465023433432,0.3163325073214688
0.1519509067594797,0.6805648316000382,0.8682098043800172,0.6157345187635687,0.1043176178660049,0.8156114308795314,0.8281915355870341,0.7154920157177493,0.7178233274373115,0.5656064426909623,0.3911473702482208,0.3102500563189908
0.1503022531599194,0.6775116878160481,0.8671966331540799,0.6182156518143285,0.1040198511166252,0.8132889023528224,0.8277570174676283,0.710642922832539,0.7135053584434503,0.5621085170422192,0.3881964936642945,0.3071412480288353
0.1617512364901996,0.6918232993035016,0.8691450393578053,0.6040525173162411,0.1089826302729528,0.8221750984550136,0.8388806813244113,0.7205083187024496,0.717094995317865,0.5649149922720247,0.3908002082971706,0.310024780355936
0.1673383403553764,0.6961167827497377,0.8678201231392719,0.5985733484958131,0.1128535980148883,0.8235888114712713,0.8531328756409142,0.7342195468606304,0.7248465300176882,0.5693484096640364,0.3948967193195626,0.3147105203874746
0.1623923795566953,0.6845720828165252,0.8625983945132881,0.6076708363485992,0.1134491315136476,0.8140967383621124,0.8514817067871729,0.7295376640749102,0.7208927270835502,0.5662572195558448,0.3922930046866864,0.3116467672899301
0.1478292727605788,0.6677797920045798,0.8612734782947549,0.6249353871601365,0.1064019851116625,0.804402706250631,0.8366211871035022,0.711646183429479,0.7083550098845074,0.5565769136907183,0.3845165769831627,0.3015994593376886
0.1427917200952555,0.6637725407880928,0.8622866495206921,0.6300010338054378,0.1030272952853597,0.8028880137332121,0.8312331624228729,0.7039545188529388,0.7020081157007596,0.5515740665419344,0.3804200659607707,0.2973642712322595
0.1530500091591866,0.6789428489647935,0.8659496531836957,0.615941279851132,0.1063027295285359,0.8132889023528224,0.8411401755453203,0.7096396622355989,0.7054937051295391,0.5548686244204019,0.3826071862523867,0.3006983554854697
0.1563473163583073,0.6840950291002768,0.8673525056503779,0.6112891553809573,0.1071960297766749,0.8169241643946279,0.8543495263752499,0.7185854025583144,0.7106960774112996,0.5580818351907589,0.3854886304461031,0.3036269430051813
0.1427917200952555,0.6755080622078046,0.8718728080430207,0.6235914400909749,0.0969727047146401,0.8153084923760476,0.8553054662379421,0.7129838642253992,0.706690250754344,0.5554787277312292,0.3835098073251172,0.301239017796801
0.131251144898333,0.6634863085583438,0.8718728080430207,0.6366173886074641,0.0907196029776674,0.8089467838028879,0.8452246458677327,0.6966808795251234,0.6974300280928104,0.548808264866184,0.3776427703523694,0.294300518134715
0.1323502472980399,0.6621505581528481,0.8698464655911464,0.6367207691512458,0.0926054590570719,0.8069271937796627,0.8383592595811244,0.6895744502967979,0.6936843200499428,0.5453103392174409,0.3737545565006075,0.2906961027258392
0.1404103315625572,0.6766529911268009,0.8748343854726832,0.6243151038974465,0.0937965260545905,0.8178329799050793,0.8388806813244113,0.6954268037789482,0.6969097908646343,0.5478727731229155,0.3763582711334838,0.2931741383194413
0.1464553947609452,0.6902013166682569,0.8807575403320084,0.6135635273441538,0.0933002481389577,0.8288397455316571,0.8466151038498304,0.7058774349970738,0.7021121631463948,0.5527535996095339,0.3807672279118209,0.2988060373958098
0.1420589851621176,0.6836179753840282,0.8791988153690281,0.6195595988834902,0.0919106699751861,0.8243966474805614,0.8419223081602502,0.7053758046986038,0.701175736135678,0.5528349467176442,0.3818087137649714,0.3002478035593602
0.1307931855651218,0.6719778647075662,0.8791988153690281,0.6322754057686344,0.0857568238213399,0.818135918408563,0.8235856435213348,0.689741660396288,0.6923317032566851,0.5456764012039372,0.3760111091824336,0.2944807389051588
0.1303352262319106,0.6768438126133003,0.8835632452653729,0.6298976532616561,0.0827791563275434,0.8235888114712713,0.8090727383331884,0.6804614998745925,0.6871293309749247,0.5413243309200357,0.3730255164034022,0.2902906059923406
0.1396775966294192,0.6888655662627612,0.8853557789728003,0.6181122712705469,0.0867493796526054,0.8310612945572048,0.8084644129660206,0.6828860463171976,0.6892623036104464,0.5442935003660619,0.3761499739628537,0.295156566794323
0.1469133540941564,0.6962121934929874,0.8852778427246513,0.6100485888555774,0.0907196029776674,0.8348985156013329,0.8062049187451116,0.6881531644511327,0.6931640828217668,0.548523549987798,0.3808713764971359,0.3020950664564091
0.1394028210294925,0.6862894761950196,0.883641181513522,0.6196629794272718,0.0876426799007444,0.8286377865293345,0.7909967845659163,0.6770336928350472,0.6869212360836542,0.5440901325957862,0.3783370942544697,0.2991214237440865
0.1261220003663674,0.6732182043698121,0.8841867352505651,0.634239636100486,0.0800992555831265,0.8220741189538524,0.7753541322673155,0.6568848758465011,0.6756841119550516,0.5349385829333767,0.3711855580628364,0.2897499436810092
0.1234658362337424,0.6808510638297873,0.8926817862988075,0.6315517419621628,0.0732506203473945,0.8316671715641725,0.7650995046493438,0.6470194799765906,0.6701175736135678,0.5310745952981372,0.3680611005033848,0.285559810768191
0.1361971056970141,0.7041312851827116,0.900865092354454,0.6118060580998657,0.0749379652605459,0.8492376047662323,0.7720517945598331,0.653457068806956,0.6745395900530642,0.5351826242577076,0.3716368685992015,0.2901554404145077
0.1454478842278805,0.7127182520751837,0.9000077936248149,0.601984906440608,0.0804962779156327,0.8531758053115217,0.7829147475449726,0.6660814313184515,0.6810945791280825,0.5405515333929879,0.3766360006943239,0.2963730569948186
0.1363802894302985,0.6981204083579812,0.8957992362247682,0.6150108549570971,0.078213399503722,0.8427749166919114,0.7829147475449726,0.6658306161692166,0.6817188638018937,0.5403888391767673,0.3761499739628537,0.2958323946834872
0.1269463271661476,0.6853353687625228,0.8933052762839997,0.627209759123333,0.0747394540942927,0.8343936180955265,0.7720517945598331,0.653039043558231,0.6748517323899699,0.5351012771495973,0.3711161256726263,0.2904257715701734
0.1335409415643891,0.6923957637629997,0.8935390850284467,0.6196629794272718,0.078213399503722,0.8382308391396546,0.7676197097418962,0.6489423961207257,0.6713141192383727,0.5327015374603433,0.3689984377712202,0.2879477359765713
0.1448067411613848,0.7078523041694494,0.8966565349544073,0.6048795616664944,0.0822828784119106,0.8485307482581035,0.775006517771791,0.6599782626870663,0.6776089896993029,0.5377043846091272,0.3734421107446624,0.2931741383194413
0.1508518043597728,0.7115733231561874,0.8943963837580858,0.5995037733898481,0.0870471464019851,0.84903564576391,0.7867385069957418,0.6737730958949921,0.6860368327957549,0.5442528268120068,0.3786495400104149,0.2988961477810318
0.1406851071624839,0.6984066405877303,0.8923700413062114,0.6123229608187739,0.0827791563275434,0.8407553266686862,0.7875206396106716,0.672268204999582,0.6855686192903965,0.5444561945822826,0.3783718104495748,0.2969587744987609
0.1321670635647554,0.6930636389657475,0.8952536824877251,0.6200765016023985,0.0763275434243175,0.8397455316570737,0.7752672286434344,0.6604798929855363,0.6785974404328374,0.5388839176767266,0.3737892726957126,0.29168731696328
0.1356475544971606,0.6936361034252457,0.8927597225469566,0.6178021296392019,0.0798014888337469,0.8384327981419771,0.7714434691926653,0.6573865061449711,0.6774008948080326,0.5377857317172374,0.3732338135740323,0.2911015994593376
0.1491115588935702,0.7096651082911936,0.8943963837580858,0.6014680037216995,0.0860545905707196,0.847924871251136,0.7787433735986791,0.6660814313184515,0.6834876703776923,0.5423818433254698,0.3770873112306891,0.2959675602613201
0.1541491115588935,0.7177750214674172,0.8967344712025562,0.594334746200765,0.0873449131513647,0.8537816823184892,0.7883896758494829,0.6780369534319872,0.6902507543439809,0.5480761408931912,0.3808713764971359,0.3006983554854697
0.1462722110276607,0.7032725884934644,0.8915127425765724,0.6066370309107826,0.0863523573200992,0.8426739371907502,0.7874337359867907,0.6766156675863222,0.6884819477681824,0.5465305458390954,0.3793091477174102,0.2990763685514755
0.1384869023630701,0.6807556530865376,0.8799002416023693,0.6231779179158482,0.0895285359801488,0.8232858729677875,0.7814373859389937,0.6660814313184515,0.6794818437207366,0.5391279590010575,0.3727130706474571,0.2919125929263347
0.1425169444953288,0.6742677225455587,0.8710934455615306,0.6244184844412282,0.0973697270471463,0.8141977178632737,0.7827409402972103,0.6632388596271215,0.675632088232234,0.5350199300414871,0.3694150321124805,0.2883982879026808
0.1494779263601392,0.6823776357217823,0.8717948717948717,0.6161480409386954,0.1006451612903225,0.8188427749166919,0.7979490744764056,0.6761140372878522,0.6822391010300698,0.5388432441226714,0.3720881791355668,0.29168731696328
0.1518593148928375,0.6860986547085202,0.872808043020809,0.6127364829939006,0.1013399503722084,0.8214682419468847,0.8194142695750413,0.6925842320876181,0.6925397981479555,0.54640852517693,0.3772608922062142,0.2973192160396485
0.1428833119618977,0.6745539547753078,0.8709375730652327,0.6241083428098831,0.0975682382133995,0.8141977178632737,0.8228904145302859,0.6950923835799682,0.6948288419519301,0.5475067111364191,0.3782676618642597,0.2978598783509799
0.1333577578311045,0.6630092548420953,0.8696905930948484,0.6356869637134291,0.0932009925558312,0.8072301322831464,0.8148083775093421,0.6859794331577627,0.6902507543439809,0.5427885788660214,0.374691893768443,0.2924532552376661
0.1325334310313244,0.6652991126800878,0.8722624892837659,0.6348599193631758,0.0912158808933002,0.8101585378168232,0.8153297992526288,0.6826352311679624,0.6888461138279056,0.5402668185146018,0.3731990973789272,0.2905158819553953
0.1437992306283202,0.6807556530865376,0.8753020029615776,0.62017988214618,0.0953846153846153,0.8203574674341108,0.8257582341183628,0.691998996739403,0.6943086047237541,0.5453103392174409,0.3771567436208992,0.2948862356386574
0.1443487818281736,0.684285850586776,0.877718026654197,0.6180088907267651,0.0940942928039702,0.8236897909724324,0.8353176327452854,0.7001086865646685,0.6997710956196026,0.5494183681770113,0.3806283631314008,0.2997521964406398
0.1361055138303718,0.678179563018796,0.8797443691060711,0.625969192597953,0.0883374689826302,0.8218721599515298,0.8335795602676631,0.6975169300225734,0.698002289043804,0.5479541202310257,0.3794827286929352,0.2989412029736427
0.1273126946327166,0.6694017746398245,0.8800561140986672,0.6355835831696474,0.0833746898263027,0.8174290619004342,0.8257582341183628,0.6864810634562327,0.6919155134741443,0.5431139672984625,0.3759416767922236,0.2938049110159946
0.1253892654332295,0.6725503291670643,0.884264671498714,0.6349632999069575,0.0797022332506203,0.8217711804503685,0.8227166072825237,0.6809631301730624,0.6886380189366351,0.5418124135686976,0.374518312792918,0.290786213111061
0.1315259204982597,0.6848583150462743,0.8890187826358039,0.6248320066163547,0.0799007444168734,0.8313642330606885,0.829668897193013,0.6873171139536828,0.6939964623868485,0.545879768974213,0.3781982294740497,0.2949763460238792
0.1414178420956219,0.6912508348440035,0.8859013327098434,0.6158378993073503,0.0873449131513647,0.8327779460769462,0.8326236204049708,0.6969316946743583,0.6986265737176153,0.5499877979337834,0.3824336052768617,0.3010587970263573
0.1347316358307382,0.6841904398435263,0.8858233964616944,0.6233846790034114,0.0836724565756823,0.8289407250328182,0.8321021986616842,0.6960120391271633,0.698002289043804,0.550109818595949,0.3814268356188162,0.2990763685514755
0.116138486902363,0.6843812613300257,0.9018003273322424,0.6338261139253593,0.0634243176178659,0.8394425931535897,0.8400973320587469,0.7022824178580386,0.7068463219227968,0.555438054177174,0.3818434299600764,0.2937148006307727
0.1042315442388715,0.7041312851827116,0.92806484295846,0.6298976532616561,0.0402977667493796,0.8668080379682924,0.8553923698618232,0.7193378480060195,0.7233378420559776,0.5704059220694704,0.3919458427356362,0.2988060373958098
0.1202601209012639,0.740005724644595,0.9438079650845608,0.6013646231779178,0.0390074441687344,0.8959911138038978,0.853741201008082,0.7257754368363849,0.7331183019456873,0.5894411453672822,0.4149973962853671,0.3218292408200045
0.154332295292178,0.7652895716057629,0.9354687865326162,0.5683862297115683,0.0627295285359801,0.9040694738967988,0.8230642217780482,0.7103085026335592,0.7314015190927063,0.6088831042056455,0.4480124978302378,0.360666816850642
0.1884960615497343,0.7699646980249978,0.9101395058841868,0.546572934973638,0.0973697270471463,0.8901343027365445,0.7713565655687843,0.6899088704957779,0.736447820206014,0.6376393069226389,0.4901232424926228,0.4087857625591349
0.2472064480674116,0.7664345005247591,0.8572987296391551,0.5153520107515766,0.1628784119106699,0.8539836413208117,0.7204310419744502,0.7307917398210851,0.8006971178857559,0.7091434149515984,0.5566741885089395,0.4740256814597882
0.3647188129694082,0.8044079763381359,0.7883251500272778,0.4285123539749819,0.2704714640198511,0.8293446430374634,0.6432606239680194,0.7960036786221888,0.8858599521381751,0.8097697876840478,0.6619684082624545,0.5846812345122775
0.5181351895951639,0.875107337086156,0.7155326942560984,0.3036286570867362,0.3999007444168734,0.8196506109259819,0.544625010862953,0.8249310258339604,0.9267505982728124,0.8950622305377043,0.7869119944454088,0.7284974093264248
0.6782377724858032,0.8864612155328692,0.5885745460213545,0.2071746097384472,0.5674441687344912,0.7434110875492276,0.4237420700443208,0.7892316695928433,0.8951721985225263,0.920157813389734,0.871445929526124,0.8419463843207929
0.825609085913171,0.8617498330311995,0.4429896344789961,0.1372893621420448,0.7400496277915631,0.6359688983136423,0.2707047883896758,0.6589750020901263,0.7711476433253565,0.8510941186040836,0.8684256205519877,0.889119170984456
0.8994321304268181,0.8448621314760043,0.3663783025485153,0.1048278713946034,0.8288833746898262,0.577400787640109,0.1466064134874423,0.45522949586155,0.5747060659660806,0.6777434312210201,0.7400451310536367,0.8198242847488173
0.8966843744275508,0.8063161912031296,0.337230145740784,0.1272614493952237,0.8458560794044665,0.5382207411895384,0.1014165290692621,0.2702951258255998,0.3717094995317865,0.4661596030261124,0.5420586703697275,0.6652399189006534
0.8180069609818648,0.5970804312565595,0.2332631907099992,0.2850201592060374,0.8694789081885856,0.3600929011410683,0.2467193881984878,0.2410333584148482,0.2523150556653834,0.2882534775888717,0.3420586703697275,0.4706014868213561
0.6737497710203333,0.3391851922526477,0.1453511027979113,0.5061511423550088,0.8473449131513646,0.166616176916086,0.4547666637698792,0.2330072736393278,0.1732389969826241,0.1578133897339949,0.1825377538621767,0.2883532327100698
0.4821395860047627,0.2044652227840855,0.1984256877873899,0.6872738550604776,0.7096774193548386,0.1297586589922245,0.5840792561049796,0.1452219714070729,0.0850067630839662,0.0560888310420564,0.0717930914771741,0.1529173237215589
0.318098552848507,0.117832267913367,0.2670875224066713,0.8267342086219372,0.5770719602977666,0.1284459254771281,0.670722169114452,0.1019145556391605,0.0509832483612527,0.0113885951354429,0.0121853844818608,0.0619058346474431
0.2077303535446052,0.1152561778456254,0.358974358974359,0.8905200041352218,0.458759305210918,0.186509138644855,0.7137394629356044,0.0984867485996154,0.0749141608573509,0.0311152688521923,0.0102412775559798,0.0232935345798603
0.1284117970324235,0.1580001908214865,0.4613046527940144,0.9121265377855888,0.3505707196029776,0.2754720791679289,0.7414617189536803,0.1261600200652119,0.1245447924253459,0.0792320832994387,0.038014233639993,0.0215814372606443
0.0733650851804359,0.206468848392329,0.5478138882394202,0.9168820427995452,0.2657071960297766,0.3571644956073916,0.7820457113061615,0.1990636234428559,0.2039850171678285,0.1450825673147319,0.0810623155702135,0.0408650596981302
0.0533980582524271,0.2862322297490697,0.629958693788481,0.8849374547710122,0.2025806451612903,0.4525901242047864,0.8178500043451812,0.3069141376139119,0.3098532931016544,0.2303750101683885,0.1395938205172713,0.0831718855598108
0.0433229529217805,0.3856502242152466,0.7198191879042943,0.8367621213687584,0.1399503722084367,0.5633646369786933,0.8206309203093769,0.4075746175068974,0.4120278847154302,0.3139998373057838,0.1990279465370595,0.1311556656904708
0.0592599377175306,0.4866902013166683,0.7886368950198737,0.7729763258554739,0.1047146401985111,0.6615167121074421,0.808029894846615,0.4796421703870913,0.4919363229632713,0.3807451395102904,0.2493317132442284,0.1745888713674251
0.0958966843744275,0.5830550519988551,0.8363338788870704,0.7001964230331852,0.0941935483870967,0.7433101080480662,0.8075084731033284,0.5480311010785051,0.5635209655602956,0.4398844871064833,0.294775212636695,0.2178418562739355
0.1165964462355742,0.6511783226791337,0.8742108954874913,0.6516075674558048,0.0812903225806451,0.803998788245986,0.8154167028765099,0.619095393361759,0.6292269274789305,0.492068656959245,0.3333796215934734,0.2538860103626943
0.1103681993039017,0.6629138440988456,0.8891746551321018,0.6487129122299183,0.0683870967741935,0.8198525699283045,0.814721473885461,0.655379984951091,0.6617417542399334,0.5172049133653298,0.3493143551466759,0.2653750844784862
0.0966294193075654,0.6569029672741151,0.8959551087210661,0.659774630414556,0.0566749379652605,0.8210643239422396,0.8067263404883983,0.6615667586322214,0.6722505462490896,0.5241194175547059,0.3524040965110224,0.2646091462041
0.0961714599743542,0.6696880068695736,0.906788247213779,0.653054895068748,0.0494292803970223,0.8348985156013329,0.8094203528287129,0.6689240030097818,0.6816148163562585,0.5311966159603027,0.3567783370942545,0.267222347375535
0.1025828906393112,0.6896288522087588,0.9176993219546412,0.6386849994830973,0.0460545905707196,0.8524689488033929,0.825149908751195,0.6884039796003679,0.6962334824680054,0.5430732937444074,0.3658392640166638,0.2767289930164451
0.1039567686389448,0.6994561587634768,0.9244797755436054,0.6324821668561976,0.0424813895781637,0.8620620014137129,0.8388806813244113,0.7055430147980937,0.7082509624388722,0.5535670706906369,0.3746224613782329,0.2840729894120297
0.0951639494412896,0.6925865852494991,0.9263502454991815,0.6412695130776388,0.0364267990074441,0.8596384933858426,0.8346224037542366,0.7045397542011538,0.709187389449589,0.5542178475555194,0.3749001909390731,0.2832169407524217
0.0893020699761861,0.683999618357027,0.9243239030473072,0.6492298149488266,0.0345409429280396,0.8537816823184892,0.822977318154167,0.6955940138784382,0.7058058474664448,0.5500284714878386,0.3717063009894116,0.279477359765713
0.0938816633082982,0.6859078332220209,0.9219858156028368,0.6456114959164685,0.0385111662531017,0.8532767848126829,0.823672547145216,0.6991054259677284,0.7089792945583187,0.5519808020824859,0.3729213678180871,0.2806487947735976
0.1068877083714966,0.6958305505199887,0.9189463019250252,0.6327923084875426,0.0475434243176178,0.8566091083510047,0.8386199704527678,0.7145723601705543,0.7196961814587453,0.5604409013259578,0.3795521610831453,0.288173011939626
0.1118336691701776,0.6951626753172407,0.9142701270360843,0.6304145559805644,0.0532009925558312,0.8531758053115217,0.8490484053185017,0.7257754368363849,0.7262511705337634,0.565769136907183,0.3835098073251172,0.2937148006307727
0.1010258289063931,0.6798015456540406,0.9109188683656768,0.6447844515662152,0.0494292803970223,0.8428758961930728,0.8473972364647605,0.7225984449460747,0.7228176048278016,0.5635320914341495,0.380940808887346,0.289930164451453
0.0936984795750137,0.6632954870718444,0.9036707972878186,0.6579137806264861,0.0501240694789081,0.8294456225386245,0.8382723559572435,0.7120642086782042,0.7183955883883051,0.5595054095826894,0.3771220274257941,0.2841630997972516
0.1013006045063198,0.6664440415990841,0.8998519211285169,0.6519177090871497,0.0566749379652605,0.8286377865293345,0.83644737985574,0.7138199147228493,0.7193840391218396,0.5595867566907996,0.3763235549383788,0.2833521063302546
0.1163216706356475,0.684285850586776,0.901644454835944,0.6337227333815776,0.0637220843672456,0.8392406341512674,0.8440079951333971,0.728450798428225,0.7285922380605556,0.5648743187179696,0.3806283631314008,0.2888488398287903
0.1209928558344018,0.6913462455872532,0.9033590522952224,0.6273131396671147,0.0651116625310173,0.8440876502070079,0.8480055618319283,0.7365604882534904,0.734470918738945,0.5694297567721468,0.3835445235202222,0.291642261770669
0.1125664041033156,0.6792290811945425,0.900631283610007,0.6386849994830973,0.0622332506203473,0.8359083106129456,0.8384461632050056,0.7291196388261851,0.7315055665383415,0.5667859757585617,0.3820170109356015,0.2884883982879027
0.104781095438725,0.6712145787615685,0.9007092198581561,0.6473689651607567,0.0580645161290322,0.8316671715641725,0.822977318154167,0.7191706379065295,0.7261471230881282,0.5624339054746603,0.3785801076202048,0.2837125478711421
0.1056970141051474,0.6782749737620457,0.9056971397396928,0.643026982321927,0.0553846153846153,0.8387357366454609,0.8197618840705656,0.7208427389014297,0.7283321194464676,0.5633693972179289,0.3799340392293005,0.2854246451903582
0.1179703242352079,0.696307604236237,0.9099056971397398,0.6263827147730797,0.0593548387096774,0.850954256285974,0.8270617884765794,0.7326310509154753,0.7358235355322027,0.5700805336370293,0.3838569692761674,0.2908763234962829
0.1234658362337424,0.7071844289667016,0.9141921907879356,0.6172852269202935,0.0595533498759305,0.8595375138846815,0.8310593551751109,0.7415767912381908,0.7408178129226928,0.5741072154884894,0.3863565353237285,0.2933543590898851
0.1126579959699578,0.6954489075469898,0.9138025095471904,0.6297942727178745,0.0538957816377171,0.8530748258103605,0.8228904145302859,0.7363096731042554,0.7388409114556238,0.572683641096559,0.3846207255684777,0.2906059923406172
0.1032240337058069,0.6828546894380307,0.9115423583508688,0.6419931768841104,0.0502233250620347,0.844895486216298,0.8135048231511254,0.7270295125825599,0.7332223493913225,0.56764012039372,0.381114389862871,0.2851543140346925
0.1054222385052207,0.6813281175460357,0.9084249084249084,0.6414762741652021,0.0534987593052109,0.8420680601837826,0.8149821847571043,0.727113117632305,0.7330662782228697,0.5661758724477345,0.3806283631314008,0.2840279342194188
0.1139402821029492,0.6948764430874916,0.91224378458421,0.6293807505427479,0.055682382133995,0.8516611127941028,0.8277570174676283,0.7383161942981356,0.7411299552595983,0.5719921906776214,0.3842388474223225,0.2883081775174589
0.1132991390364535,0.6953534968037401,0.9131790195619982,0.6294841310865295,0.0546898263027295,0.852569928304554,0.8407925610497957,0.7530306830532564,0.7482051815627927,0.5779305295696737,0.3879534802985593,0.2920928136967786
0.1046895035720827,0.6815189390325351,0.9092042709063984,0.6418897963403287,0.0526054590570719,0.8426739371907502,0.8400104284348657,0.7508569517598863,0.747372801997711,0.5768730171642398,0.3861135219579934,0.2897949988736202
0.1014837882396043,0.6762713481538022,0.9075676096952692,0.6465419208105034,0.0518114143920595,0.8388367161466223,0.8324498131572086,0.745088203327481,0.7445114972427428,0.5743105832587652,0.3826766186425968,0.2856949763460239
0.1080784026378457,0.6891517984925103,0.9125555295768062,0.6357903442572107,0.0522084367245657,0.8488336867615874,0.8373164160945511,0.7519438174065712,0.7499739881385912,0.5773610998129016,0.3843777122027426,0.2877224600135166
0.1192526103681993,0.706516553763954,0.917231704465747,0.6200765016023985,0.0553846153846153,0.8610522064021003,0.8486138871990961,0.7688320374550622,0.7628238476745396,0.5868380379077524,0.3918416941503211,0.2956071187204325
0.1217255907675398,0.7109054479534397,0.9187124931805782,0.6163548020262587,0.0557816377171215,0.864384529940422,0.8573042495872076,0.7833793161106931,0.7725002601186142,0.5940779305295697,0.3964936642943933,0.3005181347150259
0.1083531782377724,0.6983112298444806,0.9198036006546644,0.6306213170681277,0.0478411910669974,0.8584267393719075,0.8546971408707743,0.7791154585736978,0.7712516907709916,0.5931424387863011,0.3948272869293525,0.2973642712322595
0.0999267265066862,0.6954489075469898,0.9246356480399032,0.6369275302388091,0.0400992555831265,0.8600424113904878,0.8395759103154601,0.7681631970571022,0.7659972947664135,0.588058244529407,0.3899323034195452,0.2907411579184501
0.1023997069060267,0.7080431256559488,0.9328189540955498,0.6287604672800579,0.0363275434243176,0.8720589720286781,0.8335795602676631,0.7706713485494523,0.7675580064509416,0.5894004718132271,0.3892379795174449,0.2892993917548997
0.113115955303169,0.7240721305218968,0.9367937027511496,0.6140804300630621,0.0395037220843672,0.8830657376552559,0.8393151994438168,0.7815400050163029,0.7743210904172303,0.5939152363133491,0.3922235722964763,0.291642261770669
0.110093423703975,0.7275069172788856,0.9422492401215804,0.6138736689754988,0.0344416873449131,0.8884176512168029,0.8414008864169635,0.7873087534487083,0.7794194152533556,0.5965996908809892,0.3930914771741017,0.2923631448524442
0.0971789705074189,0.7172025570079191,0.944743200062349,0.6267962369482063,0.0258064516129032,0.884580430172675,0.834274789258712,0.780620349469108,0.7778066798460098,0.594443992516066,0.389585141468495,0.2871367425095742
0.0848140685107162,0.7025093025474669,0.9432624113475176,0.6416830352527654,0.0201488833746898,0.8758961930728061,0.8329712349004953,0.7766909121310928,0.7770783477265634,0.5919629057187017,0.3860093733726784,0.2809191259292634
0.0826158637113024,0.7150081099131763,0.955420466058764,0.6362038664323375,0.0111166253101736,0.890336261738867,0.8427913443990614,0.7876431736476882,0.7857142857142857,0.5976978768404783,0.3887519527859747,0.2822707817075918
0.0940648470415826,0.7466844766720733,0.9714753331774608,0.6125297219063373,0.0071464019851116,0.9174997475512472,0.8582601894499,0.8126410835214447,0.8041306835917179,0.6118116000976165,0.3974657177573338,0.291642261770669
0.1032240337058069,0.7632859459975194,0.977242615540488,0.5983665874082498,0.0084367245657568,0.9300212056952438,0.8644303467454593,0.8326226904105007,0.8190094683175528,0.6213292117465223,0.4030203089741364,0.2970939400765938
0.093057336508518,0.7530769964698026,0.977554360533084,0.6096350666804508,0.0026799007444168,0.924770271634858,0.8553923698618232,0.8335423459576958,0.8204141088336281,0.6216546001789637,0.4018399583405659,0.293444469475107
0.0871038651767723,0.7460166014693255,0.9768529342997428,0.6168717047451671,0.0,0.9206301120872464,0.8477448509602851,0.8314522197140707,0.8207262511705339,0.620434393557309,0.3995139732685298,0.2887587294435683
0.0938816633082982,0.7582291766052859,0.9810614916997896,0.6064302698232192,0.0008933002481389,0.9298192466929212,0.8520900321543408,0.8426552963799013,0.8291020705441682,0.624135686976328,0.4008679048776254,0.2901554404145077
0.1046895035720827,0.7762618070794773,0.9865949653183697,0.5905096660808437,0.0032754342431761,0.9429465818438856,0.864951768488746,0.8609648022740574,0.8412235979606701,0.6319043358008624,0.4055545912168026,0.296102725839153
0.1077120351712767,0.773876538498235,0.9820746629257268,0.590096143905717,0.0078411910669975,0.9387054427951126,0.873989745372382,0.8771841819245882,0.851264176464468,0.6377613275848043,0.4098941156049297,0.3001576931741383
0.1002015021066129,0.7624272493082722,0.9791910217442132,0.6005375788276647,0.0055583126550868,0.930829041704534,0.8659077083514382,0.8756792910291781,0.8505878680678389,0.6349548523549988,0.4070126714112134,0.296102725839153
0.0973621542407034,0.7571796584295393,0.9771646792923387,0.604982942210276,0.0053598014888337,0.9267898616580834,0.854523333623012,0.8701613577460078,0.8469462074706066,0.6311722118278695,0.4024648498524562,0.2911466546519486
0.1055138303718629,0.7683427153897529,0.9794248304886602,0.594334746200765,0.0082382133995036,0.9341613652428558,0.8551316589901798,0.8753448708301982,0.8510560815731975,0.6336532986252338,0.4038187814615518,0.2933994142824961
0.1209012639677596,0.7879973284991891,0.9824643441664718,0.5750025845135945,0.0146898263027294,0.9464808643845298,0.8631267923872425,0.892818326226904,0.8622932057018,0.6410152119092166,0.410553723311925,0.3007884658706916
0.1279538376992122,0.7934357408644215,0.9807497467071936,0.5680760880802234,0.019652605459057,0.9481975159042711,0.8646910576171025,0.9035197725942646,0.8680678389345542,0.6459773855039453,0.4137823294566916,0.3046632124352331
0.1201685290346217,0.7761663963362275,0.9733458031330372,0.581825700403184,0.0201488833746898,0.934363324245178,0.8559137916051099,0.8977510241618594,0.8645302257829571,0.6420727243146507,0.4103107099461899,0.3007434106780807
0.1172375893020699,0.76309512451102,0.9651624970773904,0.5906130466246252,0.0237220843672456,0.922043825103504,0.8461805857304249,0.8893069141376139,0.8582873790448444,0.6360530383144879,0.4059364693629578,0.2966433881504843
0.1333577578311045,0.7752122889037306,0.961421557166238,0.5748992039698129,0.0348387096774193,0.9260830051499546,0.842530633527418,0.8891397040381238,0.8571948808656749,0.6351988936793297,0.4062141989237979,0.2992115341293084
0.1492947426268547,0.7934357408644215,0.9626685371366224,0.555980564457769,0.0426799007444168,0.936584873270726,0.846962718345355,0.8982526544603294,0.8611486837998128,0.6401203937200033,0.4127755597986461,0.3089885109258842
0.1591866642242168,0.7998282606621506,0.9594731509625124,0.5469864571487645,0.0500248138957816,0.9377966272846612,0.8417485009124881,0.8987542847587994,0.8606804702944543,0.6425608069633124,0.4166984898455129,0.3165127280919126
0.1551566220919582,0.7841808987692015,0.9501208011846308,0.5577380337020573,0.0538957816377171,0.9234575381197616,0.8287998609542019,0.8839561909539336,0.8495994173343046,0.6378426746929147,0.4146502343343169,0.3173237215589096
0.1585455211577211,0.769869287281748,0.9355467227807652,0.5635273441538302,0.0649131513647642,0.9064929819246692,0.8130703050317198,0.8669007608059527,0.8387784829882428,0.6319043358008624,0.4137823294566916,0.3172336111736878
0.178146180619161,0.7760709855929779,0.9239342218065624,0.5491574485681794,0.0829776674937965,0.9022518428758962,0.8024680629182236,0.8604631719755873,0.8332639683695765,0.6305621085170422,0.4164554764797778,0.3229105654426673
0.1963729620809672,0.7841808987692015,0.9150494895175746,0.5344774113511837,0.0984615384615384,0.9008381298596384,0.804988268010776,0.8602123568263523,0.8315471855165957,0.6320263564630277,0.4219059191112654,0.3325974318540212
0.2007693716797948,0.7794103616067171,0.9074117371989712,0.5345807918949653,0.1057071960297766,0.8933656467737048,0.8032501955331537,0.853440347797007,0.8248361252731247,0.6293012283413324,0.4240236070126714,0.3363820680333408
0.1928008792819197,0.7548898005915468,0.8942405112617878,0.5523622454254109,0.1097766749379652,0.8718570130263555,0.7902146519509864,0.8335423459576958,0.809905316824472,0.6209224762059709,0.4201701093560145,0.3335435908988511
0.18913720461623,0.740291956874344,0.8853557789728003,0.5623901581722319,0.1135483870967741,0.8583257598707462,0.7762231685061266,0.8114706128250146,0.7933097492456561,0.6124217034084438,0.4152404096511022,0.3288578508673124
0.1974720644806741,0.7408644213338422,0.8787311978801341,0.5573245115269306,0.1221836228287841,0.8542865798242957,0.7760493612583645,0.799598695761224,0.7836853605243992,0.607703571138046,0.4138864780420066,0.3288127956747015
0.2067228430115405,0.7514550138345578,0.8795105603616241,0.5463661738860747,0.1267493796526054,0.8604463293951327,0.7818719040583992,0.7951676281247386,0.7790032254708148,0.6062393231920605,0.4153098420413123,0.333633701284073
0.2028759846125664,0.7438221543745827,0.8765489829319616,0.5526723870567559,0.1265508684863523,0.854488538826618,0.7834361692882592,0.7853858373045732,0.7694308604723755,0.6014805173676077,0.4151362610657872,0.3343095291732372
0.1885876534163766,0.7253124701841428,0.8735874055022991,0.5707639822185465,0.1206947890818858,0.8427749166919114,0.7754410358911967,0.7628960789231669,0.7534075538445532,0.5908647197592125,0.4090609269224093,0.3287677404820905
0.1786957318190144,0.7096651082911936,0.8692229756059543,0.5848237361728522,0.1181141439205955,0.8316671715641725,0.7702268184583296,0.7436669174818159,0.7395692435750704,0.5815911494346375,0.4026731470230863,0.3212885785086731
0.1826341820846309,0.7123366091021849,0.8680539318837192,0.5811020365967124,0.1209925558312654,0.8323740280723013,0.775006517771791,0.7371457236017055,0.7350431796899387,0.5784999593264459,0.4013886478042007,0.3211534129308402
0.1911522256823593,0.7194924148459118,0.8667290156651858,0.5725214514628347,0.1264516129032258,0.8353024336059779,0.7888241939688885,0.7406571356909957,0.7354073457496619,0.5798015130562109,0.404131227217497,0.3255688218067132
0.1875801428833119,0.709855929777693,0.861819032031798,0.5797580895275509,0.1276426799007444,0.8269211350095931,0.7994264360823845,0.7388178245966056,0.7305691395276246,0.5768730171642398,0.4025342822426662,0.3249831043027709
0.1699029126213592,0.6899150844385078,0.8605720520614137,0.6005375788276647,0.1188089330024813,0.8156114308795314,0.7949074476405665,0.7180001672100994,0.7162105920299657,0.5656064426909623,0.3950703002950876,0.3155665690470827
0.1602857666239237,0.6767484018700506,0.8580001558724963,0.6130466246252455,0.1152357320099255,0.8069271937796627,0.7912574954375597,0.7026168380570187,0.7053376339610863,0.5572683641096559,0.3882659260545044,0.3073665239918901
0.1624839714233376,0.678179563018796,0.8572987296391551,0.611082394293394,0.1169230769230769,0.8072301322831464,0.8062049187451116,0.7047905693503888,0.7054937051295391,0.5566582607988286,0.3883006422496095,0.3069159720657806
0.1716431580875618,0.6955443182902395,0.8636895019873743,0.5964023570763982,0.1178163771712158,0.8206604059375947,0.8181976188407056,0.7154084106680043,0.7112163146394757,0.5614577401773367,0.3924318694671064,0.3125478711421491
0.1659644623557427,0.6962121934929874,0.8690671031096564,0.5992970123022847,0.11136476426799,0.8243966474805614,0.8276701138437472,0.7218459994983697,0.7153261887420664,0.5645896038395836,0.3947925707342475,0.3148006307726965
0.1508518043597728,0.6782749737620457,0.8672745694022289,0.6175953685516385,0.1042183622828784,0.8137937998586287,0.8206309203093769,0.7132346793746343,0.7084590573301426,0.559139347596193,0.3900364520048603,0.3091236765037171
0.1424253526286865,0.6688293101803263,0.8666510794170369,0.6274165202108963,0.1000496277915632,0.8084418862970816,0.8054227861301817,0.6985201906195134,0.6999271667880554,0.5523468640689824,0.3846554417635827,0.302185176841631
0.1487451914270012,0.679706134910791,0.8702361468318914,0.6179055101829836,0.1012406947890818,0.8165202463899828,0.8009907013122447,0.6988546108184933,0.702476329206118,0.5539331326771334,0.3857316438118382,0.3040324397386799
0.1601941747572815,0.7008873199122222,0.8777959629023458,0.6000206761087563,0.1026302729528536,0.8325759870746239,0.8072477622316849,0.707800351141209,0.709187389449589,0.5603188806637924,0.3909043568824857,0.3107456634377112
0.1617512364901996,0.706516553763954,0.8810692853246044,0.5960922154450532,0.1013399503722084,0.8377259416338483,0.8065525332406361,0.710224897583814,0.7114244095307461,0.5637354592044254,0.393751084881097,0.3142149132687542
0.145631067961165,0.688006869573514,0.8796664328579222,0.6152176160446604,0.0934987593052109,0.8270221145107542,0.7981228817241679,0.6962628542763982,0.7046613255644575,0.5595867566907996,0.3898628710293352,0.3102050011263798
0.1361055138303718,0.6802785993702891,0.8814589665653496,0.6247286260725732,0.0872456575682381,0.8239927294759164,0.7916920135569654,0.6832204665161775,0.6976901467068984,0.5552346864068982,0.3853497656656831,0.305609371480063
0.1417842095621908,0.6878160480870147,0.8827838827838828,0.6174919880078569,0.0895285359801488,0.8288397455316571,0.7969062309898323,0.6857286180085277,0.6997710956196026,0.5564548930285529,0.3870855754209339,0.3070060824510024
0.1518593148928375,0.7021276595744682,0.8859013327098434,0.6040525173162411,0.0930024813895781,0.8384327981419771,0.8093334492048319,0.6957612239779283,0.7077307252106961,0.5617424550557227,0.3918764103454261,0.3139896373056994
0.1552482139586004,0.7064211430207042,0.8865248226950354,0.5998139150211931,0.0943920595533498,0.8411592446733314,0.8115060398018596,0.6989382158682385,0.7108001248569349,0.5636947856503701,0.3934733553202569,0.3160621761658031
0.1442571899615314,0.6879114588302643,0.8807575403320084,0.6160446603949136,0.0921091811414391,0.8276279915177219,0.8025549665421048,0.692249811888638,0.7055977525751743,0.5603595542178476,0.3898281548342301,0.3103852218968236
0.1374793918300055,0.6776070985592978,0.878185644143091,0.6254522898790448,0.0900248138957816,0.8205594264364333,0.7946467367689232,0.6853105927598027,0.701175736135678,0.5568209550150492,0.3858705085922583,0.3052038747465645
0.1406851071624839,0.6888655662627612,0.88457641649131,0.6175953685516385,0.0877419354838709,0.8305563970513985,0.7997740505779091,0.689992475545523,0.7041931120590991,0.5594647360286342,0.3885436556153446,0.3068258616805587
0.1506686206264883,0.7084247686289477,0.8919803600654664,0.6012612426341363,0.0884367245657568,0.8457033222255882,0.813244112279482,0.7027840481565087,0.7122567890958277,0.5655657691369073,0.3940288144419372,0.3127280919125929
0.151309763692984,0.7074706611964507,0.8906554438469332,0.6014680037216995,0.0896277915632754,0.8443905887104917,0.8171547753541323,0.7039545188529388,0.7143897617313496,0.5667859757585617,0.3952091650755077,0.3138544717278666
0.1398607803627037,0.6881022803167637,0.8846543527394591,0.6184224129018918,0.0872456575682381,0.8302534585479148,0.8078560875988527,0.6918317866399131,0.7072104879825201,0.5612136988530058,0.3909390730775907,0.3079972966884433
0.1344568602308115,0.6803740101135388,0.8829397552801809,0.6256590509666081,0.0853598014888337,0.825002524487529,0.8003823759450769,0.6820499958197475,0.7015399021954012,0.5565362401366631,0.3871550078111439,0.3033566118495157
0.1415094339622641,0.6891517984925103,0.8841867352505651,0.6169750852889486,0.0884367245657568,0.8304554175502373,0.8051620752585382,0.6876515341526628,0.704453230673187,0.5593020418124135,0.3889255337614997,0.3061500337913944
0.1503022531599194,0.7006010876824731,0.8860572052061414,0.6057066060167476,0.0920099255583126,0.8377259416338483,0.8155905101242721,0.7005267118133935,0.7124128602642806,0.565525095582852,0.3940982468321473,0.312683036719982
0.149019967026928,0.6989791050472284,0.8858233964616944,0.6073606947172543,0.0914143920595533,0.8367161466222357,0.8195011731989224,0.7059610400468189,0.7144417854541671,0.5676807939477752,0.395625759416768,0.3146204100022527
0.1396775966294192,0.6853353687625228,0.8825500740394358,0.6199731210586167,0.0884367245657568,0.8274260325153994,0.8115060398018596,0.6976841401220634,0.7094995317864947,0.5639388269747011,0.3917375455650061,0.3098445595854922
0.1352811870305916,0.6802785993702891,0.8822383290468396,0.6252455287914814,0.0862531017369727,0.8244976269817227,0.8041192317719649,0.688822004849093,0.7043491832275518,0.5602782071097373,0.3881617774691894,0.3061049785987835
0.1405935152958417,0.6899150844385078,0.8855116514690983,0.6170784658327303,0.0870471464019851,0.8317681510653336,0.8081167984704962,0.6943399381322632,0.7080948912704194,0.5626372732449362,0.3901753167852804,0.3079522414958324
0.1478292727605788,0.6996469802499762,0.8873041851765255,0.6076708363485992,0.0898263027295285,0.838028880137332,0.8176761970974189,0.7072151157929939,0.717094995317865,0.5692670625559261,0.3957299080020829,0.314440189231809
0.1499358856933504,0.696593836465986,0.8830176915283298,0.6080843585237259,0.0937965260545905,0.8336867615873976,0.8203702094377334,0.710642922832539,0.7194880865674748,0.5719108435695112,0.3974310015622288,0.3162423969362469
0.1383953104964279,0.6788474382215438,0.878341516639389,0.6243151038974465,0.0904218362282878,0.8212662829445622,0.8136786303988877,0.7033692835047237,0.7132972635521798,0.5672740584072237,0.3938552334664121,0.3112863257490426
0.1355559626305184,0.6706421143020704,0.8740550229911931,0.6303111754367828,0.0916129032258064,0.8141977178632737,0.8085513165899018,0.6986037956692583,0.7087191759442306,0.5630846823395428,0.391529248394376,0.3072313584140572
0.14828723209379,0.6801831886270394,0.8710155093133817,0.6180088907267651,0.1004466501240694,0.8172271028981116,0.8134179195272443,0.7086364016386589,0.715118093850796,0.5671927112991133,0.3955216108314529,0.3114214913268754
0.159644623557428,0.6884839232897624,0.8680539318837192,0.6070505530859093,0.1085856079404466,0.8196506109259819,0.8279308247153906,0.726277067134855,0.7263552179793986,0.575571463434475,0.4024648498524562,0.3193962604190133
0.1624839714233376,0.683999618357027,0.8621307770243939,0.6078775974361625,0.1138461538461538,0.8134908613551449,0.8314069696706352,0.7335507064626703,0.7291124752887318,0.577727161799398,0.4047214025342823,0.3225501239017797
0.1535995603590401,0.6656807556530866,0.8547268334502378,0.6227643957407216,0.1137468982630272,0.7990507926890841,0.8220213782914747,0.7231000752445449,0.7215170117573614,0.5724802733262833,0.4003124457559451,0.3166478936697454
0.1533247847591133,0.6623413796393474,0.8521549372613202,0.6247286260725732,0.1152357320099255,0.7956174896496012,0.8102024854436429,0.7159100409664744,0.7164707106440538,0.56764012039372,0.3967713938552335,0.3120072088308177
0.1622091958234108,0.6750310084915562,0.8549606421946848,0.6128398635376822,0.1183126550868486,0.8040997677471473,0.8115060398018596,0.7200066884039796,0.7194880865674748,0.5694297567721468,0.3987849331713244,0.3148907411579185
0.1714599743542773,0.6869573513977675,0.8568311121502611,0.6012612426341363,0.1220843672456575,0.8115722508330807,0.8167202572347267,0.7297048741744001,0.7246904588492353,0.5735377857317172,0.4014927963895158,0.3195764811894571
0.1698113207547169,0.67999236714054,0.8525446185020653,0.605913367104311,0.123970223325062,0.8051095627587599,0.8167202572347267,0.7297048741744001,0.7231297471647071,0.573212397299276,0.4012497830237806,0.3198017571525118
0.1592782560908591,0.6650128804503387,0.8491933598316577,0.6199731210586167,0.1202977667493796,0.7951125921437947,0.803424002780916,0.7152412005685144,0.7140255956716264,0.5662165460017896,0.3955563270265579,0.3134489749943681
0.1571716431580875,0.6662532201125847,0.8520770010131712,0.620490023777525,0.1173200992555831,0.7976370796728264,0.7917789171808464,0.7043725441016636,0.7078347726563313,0.5616204343935574,0.3922930046866864,0.3088984005406623
0.16339989008976,0.6816143497757847,0.8593250720910296,0.6087046417864157,0.1161290322580645,0.8103604968191456,0.7954288693838533,0.7069643006437589,0.708927270835501,0.5623932319206052,0.3938552334664121,0.3102951115116017
0.1688038102216523,0.6891517984925103,0.8608837970540099,0.6015713842654812,0.1181141439205955,0.8154094718772089,0.808725123837664,0.7194214530557645,0.7147019040682552,0.5670300170828927,0.3980558930741191,0.3161973417436359
0.1644074006228247,0.6836179753840282,0.8601044345725197,0.6069471725421276,0.1161290322580645,0.8119761688377258,0.8116798470496219,0.7220968146476047,0.7152221412964311,0.5671520377450582,0.3981600416594341,0.3166929488623564
0.1549734383586737,0.6688293101803263,0.856051749668771,0.6203866432337434,0.1136476426799007,0.8014743007169544,0.7986443034674546,0.7078839561909539,0.7054937051295391,0.5594240624745791,0.3923971532720014,0.3091236765037171
0.1520424986261219,0.6673027382883313,0.8572207933910061,0.6227643957407216,0.1112655086848635,0.8014743007169544,0.7836099765360215,0.6944235431820082,0.697482051815628,0.5532010087041406,0.3870508592258289,0.3051137643613427
0.1574464187580143,0.6817097605190344,0.8644688644688645,0.6119094386436472,0.1095781637717121,0.8137937998586287,0.7846528200225948,0.6951759886297132,0.6979502653209865,0.5543398682176849,0.3881617774691894,0.3062851993692273
0.1612932771569884,0.6961167827497377,0.872963915517107,0.601984906440608,0.1063027295285359,0.8269211350095931,0.8018597375510558,0.7064626703452889,0.7054937051295391,0.5593427153664687,0.3917722617601111,0.3097093940076594
0.1531416010258288,0.6906783703845053,0.8754578754578755,0.6095316861366691,0.1002481389578163,0.8256084014944965,0.8155905101242721,0.7115625783797341,0.7091353657267715,0.5608476368665094,0.3932303419545218,0.310880829015544
0.1381205348965012,0.6810418853162866,0.8803678590912634,0.6231779179158482,0.0890322580645161,0.8236897909724324,0.8155036065003911,0.7047069643006437,0.7039850171678286,0.5570649963393801,0.3890643985419198,0.3057895922505068
0.1269463271661476,0.6821868142352829,0.8908113163432312,0.6289672283676212,0.0763275434243175,0.8310612945572048,0.813244112279482,0.6957612239779283,0.6979502653209865,0.552509558285203,0.3845860093733727,0.3008785762559135
0.1350980032973072,0.6973571224119837,0.8962668537136622,0.6160446603949136,0.0773200992555831,0.8426739371907502,0.8166333536108455,0.6967644845748683,0.6993028821142442,0.5538111120149678,0.387328588786669,0.3042126605091237
