Lead I,Lead II,Lead III,aVR,aVL,aVF,V1,V2,V3,V4,V5,V6
0.1503938450265616,0.6788474382215438,0.868131868131868,0.6174919880078569,0.103424317617866,0.8146016358679188,0.8002954723211958,0.6776189281832623,0.6772968473623974,0.5377857317172374,0.3703176531852109,0.2769542689794999
0.1588202967576479,0.6956397290334893,0.8746785129763853,0.6036389951411144,0.1038213399503721,0.8278299505200445,0.8101155818197617,0.6830532564166876,0.682343148475705,0.5417310664605873,0.3732338135740323,0.2820004505519261
0.1608353178237772,0.7087110008586968,0.8837191177616709,0.5953685516385816,0.0992555831265508,0.8405533676663637,0.8202833058138524,0.691497366440933,0.6884819477681824,0.5462458309607093,0.3779552161083146,0.2874521288578509
0.1561641326250228,0.7061349107909551,0.8855116514690983,0.5994003928460664,0.0955831265508684,0.8403514086640411,0.820717823933258,0.6915809714906781,0.6882738528769119,0.5461238102985438,0.3782676618642597,0.287362018472629
0.145264700494596,0.6930636389657475,0.884108799002416,0.6126331024501188,0.0905210918114143,0.8324750075734625,0.8110715216824541,0.6797926594766324,0.6810945791280825,0.5401854714064914,0.3733379621593473,0.2815949538184276
0.1430664956951822,0.6888655662627612,0.8825500740394358,0.6162514214824769,0.0903225806451612,0.8292436635363022,0.8089858347093073,0.674859961541677,0.6794298199979191,0.5385178556902303,0.3720534629404617,0.2802432980400991
0.1517677230261952,0.6947810323442419,0.8799781778505181,0.6080843585237259,0.0966749379652605,0.8307583560537211,0.8214999565481881,0.6838057018643925,0.6861929039642077,0.5451883185552754,0.3776427703523694,0.2856949763460239
0.1645905843561091,0.7076614826829501,0.8795884966097732,0.5939212240256384,0.1039205955334987,0.8373220236292032,0.8346224037542366,0.6980185603210434,0.6943606284465718,0.550150492150004,0.3808713764971359,0.289975219644064
0.1625755632899798,0.7088064116019465,0.8822383290468396,0.5944381267445467,0.1010421836228287,0.8396445521559123,0.832015295037803,0.6965972744753782,0.6935802726043075,0.5499877979337834,0.3805936469362958,0.289074115791845
0.1483788239604323,0.7004102661959737,0.8874600576728237,0.6069471725421276,0.0901240694789081,0.8385337776431385,0.8166333536108455,0.6822172059192375,0.6858807616273022,0.5457984218661027,0.3775039055719493,0.2852894796125254
0.1465469866275874,0.6976433546417328,0.8867586314394824,0.6095316861366691,0.0895285359801488,0.8367161466222357,0.8088989310854263,0.6749435665914222,0.6832795754864218,0.5440494590417311,0.3766012844992189,0.283847713448975
0.1537827440923246,0.7074706611964507,0.8886291013950587,0.6000206761087563,0.0923076923076922,0.8430778551953954,0.8155036065003911,0.6849761725608227,0.6885859952138176,0.5473846904742536,0.3794827286929352,0.2886686190583465
0.16339989008976,0.722163915656903,0.8925259138025096,0.5866845859609221,0.0949875930521091,0.8533777643138443,0.8209785348049012,0.6940891229830283,0.6932161065445843,0.5501911657040592,0.383197361569172,0.2931290831268303
0.1617512364901996,0.7243583627516459,0.8956433637284701,0.5864778248733588,0.0921091811414391,0.8566091083510047,0.8188059442078734,0.6923334169383831,0.692747893039226,0.5505572276905556,0.3836139559104323,0.2929038071637756
0.1481040483605055,0.7146264669401775,0.8993843036396227,0.5994003928460664,0.0823821339950372,0.8538826618196506,0.8096810637003562,0.6787057938299473,0.6858807616273022,0.5463678516228748,0.3792744315223052,0.2874971840504618
0.1427917200952555,0.7148172884266769,0.9040604785285636,0.6022950480719529,0.0765260545905707,0.8570130263556498,0.8028156774137482,0.672686230248307,0.6813026740193528,0.5414870251362565,0.3746224613782329,0.2824059472854247
0.1477376808939366,0.7299875966033776,0.912165848336061,0.5912333298873151,0.0739454094292803,0.8702413410077755,0.8083775093421396,0.6773681130340272,0.6817708875247113,0.5408362482713739,0.3746224613782329,0.2816850642036494
0.1568052756915186,0.7404827783608434,0.9129452108175512,0.5804817533340225,0.0784119106699751,0.8763001110774512,0.8160250282436777,0.6829696513669425,0.6867651649152013,0.5442935003660619,0.3780593646936296,0.2858751971164677
0.1557061732918117,0.7380020990363515,0.911932039591614,0.5824459836658742,0.0785111662531017,0.8742805210542258,0.8097679673242374,0.6802106847253574,0.6860368327957549,0.5449849507849995,0.3791702829369901,0.2874971840504618
0.1435244550283934,0.7176796107241676,0.905619203491544,0.6003308177401013,0.0758312655086848,0.8594365343835201,0.799687146954028,0.671766574701112,0.6795338674435543,0.5416090457984218,0.3758028120118035,0.2838927686415859
0.1415094339622641,0.7052762141017079,0.8972800249395994,0.6081877390675074,0.0800992555831265,0.8475209532464909,0.7984704962196923,0.6669174818159017,0.6768806575798564,0.5392906532172781,0.3739281374761326,0.2818202297814823
0.1503938450265616,0.7097605190344433,0.8933832125321487,0.6007443399152279,0.0874441687344912,0.8474199737453297,0.8048144607630139,0.6768664827355572,0.6821350535844345,0.5442121532579517,0.3780246484985246,0.2866861905834647
0.1599193991573548,0.7212098082244062,0.8946301925025328,0.5891657190116819,0.0917121588089329,0.8541856003231343,0.8103762926914052,0.6852269877100576,0.6864530225782958,0.5475880582445294,0.3799687554244055,0.289074115791845
0.1528668254259021,0.7183474859269154,0.8982931961655366,0.59464488783211,0.0856575682382134,0.8550944158335857,0.8060311114973495,0.6814647604715324,0.6842680262199564,0.5432766615146832,0.3755250824509634,0.2824960576706465
0.1428833119618977,0.7044175174124607,0.8954874912321721,0.6078775974361625,0.081985111662531,0.8459052812279106,0.7914313026853219,0.6668338767661568,0.6753199458953284,0.5360367688928659,0.3696580454782156,0.2755575580085604
0.1440740062282469,0.7016506058582197,0.8921362325617643,0.6087046417864157,0.0847642679900744,0.8422700191861051,0.7846528200225948,0.6634060697266114,0.6734470918738945,0.5345318473928252,0.3693455997222704,0.2756026132011714
0.1532331928924711,0.7121457876156856,0.8929935312914036,0.5978496846893415,0.0892307692307692,0.8483287892557811,0.7876944468584339,0.6700944737062119,0.6783373218187494,0.538721223460506,0.3736851241103975,0.2820004505519261
0.1651401355559626,0.7216868619406546,0.8905775075987842,0.5859609221544505,0.0971712158808932,0.8518630717964252,0.7945598331450422,0.6824680210684726,0.6845281448340444,0.5443341739201172,0.3782329456691547,0.2878125703987384
0.1610185015570617,0.7167255032916706,0.890031953861741,0.5909231882559701,0.0952853598014888,0.8488336867615874,0.792995567915182,0.6806287099740824,0.6802621995630008,0.5412023102578704,0.3759069605971186,0.283802658256364
0.1531416010258288,0.6968800686957352,0.8805237315875613,0.6062235087356559,0.0970719602977667,0.8321720690699788,0.7830885547927349,0.6682551626118218,0.6736031630423474,0.5356300333523143,0.3703176531852109,0.276819103401667
0.1495695182267814,0.6940177463982445,0.8812251578209026,0.6097384472242324,0.0946898263027295,0.8311622740583662,0.7763969757538889,0.6633224646768665,0.6704297159504735,0.5329049052306191,0.3670890470404444,0.273349853570624
0.1627587470232643,0.7094742868046943,0.8826280102875848,0.5939212240256384,0.1009429280397022,0.84025042916288,0.781698096810637,0.6709305242036618,0.6745916137758818,0.5370942812982998,0.3712549904530464,0.2785312007208831
0.1718263418208463,0.7214006297109056,0.8846543527394591,0.5823426031220924,0.104516129032258,0.8478238917499747,0.7939515077778744,0.6863138533567428,0.6817188638018937,0.5428699259741316,0.3766360006943239,0.2847938724938049
0.1681626671551566,0.7161530388321725,0.8835632452653729,0.5873048692236121,0.1033250620347394,0.8443905887104917,0.7940384114017554,0.6859794331577627,0.6819789824159818,0.5428292524200765,0.3762541225481687,0.2854697003829691
0.1534163766257556,0.7013643736284706,0.883874990257969,0.6035356145973327,0.0950868486352357,0.8367161466222357,0.7837837837837838,0.6727698352980519,0.6752158984496931,0.5372976490685756,0.372608922062142,0.280378463617932
0.1476460890272943,0.6949718538307413,0.883641181513522,0.6102553499431407,0.0921091811414391,0.8331818640815913,0.7804814460763013,0.6667502717164117,0.671418166684008,0.5350199300414871,0.370456517965631,0.2772696553277765
0.1597362154240703,0.7068027859937029,0.8830176915283298,0.5970226403390881,0.0990570719602977,0.839139654650106,0.7882158686017207,0.6746927514421871,0.6760482780147749,0.5393313267713333,0.3738587050859226,0.2829015544041451
0.1686206264883678,0.7167255032916706,0.8835632452653729,0.5866845859609221,0.1035235732009925,0.8446935272139755,0.8006430868167201,0.6859794331577627,0.6834356466548747,0.5446595623525584,0.3771220274257941,0.2874971840504618
0.1676131159553031,0.7086155901154471,0.8778738991504949,0.5916468520624418,0.1066004962779156,0.8367161466222357,0.803510906404797,0.6886547947496029,0.6864530225782958,0.5450662978931099,0.3770873112306891,0.2868213561612976
0.1480124564938633,0.6975479438984831,0.8854337152209492,0.6087046417864157,0.0912158808933002,0.8358073311117843,0.7933431824107066,0.6767828776858122,0.67984600978046,0.5394533474334987,0.3724006248915119,0.28028835323271
0.1418758014288331,0.7008873199122222,0.8934611487802977,0.6103587304869224,0.0827791563275434,0.8426739371907502,0.7917789171808464,0.6710977343031519,0.6746956612215171,0.5365655250955829,0.3706648151362611,0.2772696553277765
0.1602857666239237,0.7114779124129378,0.8863689501987375,0.5942313656569833,0.0972704714640198,0.8436837322023628,0.8041192317719649,0.6817991806705125,0.6810945791280825,0.5415276986903116,0.3752126366950182,0.2820455057445371
0.1702692800879282,0.722163915656903,0.8866027589431845,0.5828595058410007,0.1024317617866004,0.8495405432697163,0.8142869557660555,0.692667837137363,0.6886380189366351,0.5479134466769706,0.3798298906439854,0.2879477359765713
0.160010991023997,0.7179658429539166,0.8919024238173173,0.5909231882559701,0.0935980148883374,0.8507522972836514,0.8150690883809855,0.690912131092718,0.6879096868171887,0.547994793785081,0.3797951744488804,0.2882631223248479
0.1467301703608719,0.7044175174124607,0.8922141688099134,0.6057066060167476,0.0861538461538461,0.8437847117035242,0.8075084731033284,0.6834712816654126,0.6832275517636043,0.5449442772309444,0.376844297864954,0.2844334309529173
0.1481956402271478,0.7063257322774545,0.8924479775543604,0.6038457562286778,0.086848635235732,0.844895486216298,0.803424002780916,0.6796254493771423,0.6833315992092395,0.5443748474741723,0.3762194063530637,0.2837125478711421
0.1604689503572083,0.7252170594408931,0.8975138336840465,0.5866845859609221,0.0902233250620347,0.8582247803695849,0.8105500999391675,0.6870662988044478,0.6903027780667985,0.548808264866184,0.3811838222530811,0.2897048884883983
0.1614764608902729,0.7334223833603664,0.9032811160470734,0.5816189393156207,0.0871464019851116,0.866303140462486,0.8126357869123142,0.690995736142463,0.6939964623868485,0.552509558285203,0.3843777122027426,0.2917774273485019
0.1525004579593331,0.7214006297109056,0.901098901098901,0.5931975602191668,0.0836724565756823,0.8585277188730687,0.8092465455809507,0.6842237271131177,0.6905108729580689,0.5488489384202392,0.3806977955216108,0.2869565217391304
0.1405019234291994,0.7023184810609675,0.8957212999766191,0.6103587304869224,0.0805955334987592,0.844895486216298,0.7997740505779091,0.6718501797508569,0.6831755280407867,0.5419344342308631,0.3755250824509634,0.2821806713223699
0.1379373511632167,0.7025093025474669,0.8980593874210896,0.611702677556084,0.0776178660049627,0.8466121377360395,0.7999478578256713,0.674107516093972,0.684580168556862,0.5435207028390141,0.3770178788404791,0.2828114440189231
0.1418758014288331,0.7318004007251216,0.9186345569324292,0.5936110823942933,0.0666997518610421,0.8753912955669998,0.8204571130616146,0.6933366775353231,0.6981583602122569,0.5540958268933539,0.3825030376670717,0.2859202523090786
0.1372046162300787,0.7655758038355119,0.95019873743278,0.5780006202832627,0.0440694789081885,0.9136625265071192,0.8528721647692709,0.7246049661399548,0.7229216522734367,0.5729683559749451,0.3927790314181565,0.2902004956071187
0.1303352262319106,0.7749260566739816,0.9636817083625596,0.5767600537578826,0.0317617866004962,0.9273957386650508,0.862692274267837,0.7408243457904857,0.7401935282488815,0.5904173106646059,0.4070473876063183,0.2998873620184726
0.1393112291628503,0.7793149508634672,0.9596290234588108,0.5693166546056032,0.0392059553349875,0.9270928001615673,0.8281046319631528,0.7205919237521946,0.734470918738945,0.6013584967054421,0.4280159694497483,0.3191259292633476
0.1741161384869023,0.7857074706611966,0.9351570415400202,0.5461594127985113,0.0736476426799007,0.9145713420175704,0.777179108368819,0.6893236351475629,0.7230256997190719,0.6168957943545107,0.4622808540183996,0.3580085604865961
0.2334676680710752,0.8166205514740961,0.9099836333878886,0.4959164685206244,0.1217866004962778,0.9146723215187316,0.7404188754671069,0.7027840481565087,0.7563729060451566,0.6685512080045555,0.5203610484290923,0.4206352782158144
0.3109543872504121,0.8351302356645359,0.8591691995947314,0.4422619662979427,0.1961290322580645,0.8915480157528022,0.7002694012340314,0.7615583981272468,0.8328998023098533,0.7564060847636866,0.6036104842909218,0.5049335435908988
0.4156438908224948,0.8818814998568839,0.8082768295534253,0.3578000620283262,0.2853598014888337,0.8832676966575784,0.6000695228991049,0.7691664576540423,0.8730621163250444,0.8362889449280078,0.7140427009199792,0.6274386123000676
0.5415827074555779,0.9278694781032344,0.7386018237082066,0.2617595368551638,0.3979156327543424,0.862465919418358,0.4699747979490744,0.7401555053925257,0.8692643845593592,0.8945741478890425,0.8353410866169069,0.7682360892092814
0.6938999816816266,0.9417994466176892,0.6204504715143012,0.1683035252765428,0.5556327543424316,0.793294961122892,0.3193708177631006,0.6511161274140959,0.8002289043803975,0.9011632636459774,0.9246311404270092,0.8923631448524443
0.8280820663125115,0.9521038068886556,0.5147689190242382,0.0870464178641578,0.6956823821339949,0.7302837523982632,0.1984009733205874,0.5216955104088287,0.6763604203516804,0.8305539738062312,0.932164554764798,0.9556206352782158
0.8829455944312146,0.973857456349585,0.4857766347128049,0.0442468727385505,0.7438213399503723,0.7230132283146521,0.1132354219170939,0.3380152161190536,0.4949016751638748,0.6680631253558936,0.8141294914077418,0.8972741608470376
0.8431031324418391,0.8745348726266579,0.4385472683345023,0.1205417140494157,0.7523573200992555,0.6399070988589316,0.1273138089858346,0.2220550121227321,0.3346165851628342,0.472423330350606,0.610553723311925,0.7298490651047534
0.715607254075838,0.5746589065928824,0.3020808978255787,0.3549054068024397,0.7702233250620346,0.3928102595173179,0.3089423828973667,0.2321712231418777,0.2415981687649568,0.2908565850484015,0.3734768269397674,0.4943906285199369
0.5486352811870305,0.335082530292911,0.248538695347206,0.5789310451772975,0.7137468982630272,0.2313440371604563,0.4941340053880247,0.2137781121979768,0.161793777962751,0.1463841210444968,0.1799687554244055,0.2799279116918224
0.4041949074922147,0.2351874821104856,0.2897669706180344,0.7146696991626176,0.6093300248138958,0.2051903463596889,0.6342226470843834,0.2060028425716912,0.1261575278326917,0.0754901163263646,0.0811317479604235,0.1548096418112187
0.3094889173841362,0.2034157046083389,0.3444002805704933,0.7852786105654915,0.5231761786600495,0.2237705745733616,0.7206917528460937,0.2323384332413678,0.147175111851004,0.0774017733669568,0.056865127582017,0.0963280018022077
0.2124015387433595,0.2172502623795439,0.4383134595900553,0.8325235190737104,0.410818858560794,0.291931737857215,0.7431128878074216,0.2243123484658473,0.1693892414941213,0.1022939884487106,0.0605103280680437,0.0626267177292182
0.1180619161018501,0.2347104283942372,0.5328501285948094,0.8763568696371343,0.2994540942928039,0.3624154296677774,0.744242634917876,0.2229746676699272,0.1974820518156279,0.1333685837468478,0.0733900364520048,0.0395584591124127
0.077944678512548,0.2857551760328213,0.6086041617956511,0.8713946035356146,0.2294789081885855,0.4385539735433706,0.766750673503085,0.2807457570437254,0.2670377692227656,0.1923859106808753,0.1106057976045825,0.0516783059247578
0.0647554497160652,0.3835511878637535,0.6997895721299977,0.8258037837279023,0.1642679900744416,0.5493284863172776,0.812461979664552,0.3861717247721761,0.3719696181458746,0.278776539494021,0.1723311925013018,0.0974543816174814
0.0796849239787506,0.4906974525331553,0.7746083703530512,0.7593300940762948,0.1246650124069478,0.6545491265273149,0.8195880768228035,0.4788061198896413,0.4673291020705442,0.3575205401447978,0.2303419545217844,0.1468348727190808
0.1067961165048543,0.5613968132811754,0.8092900007793625,0.7056755918536132,0.1173200992555831,0.7144299707159446,0.8041192317719649,0.5369952345121645,0.5338674435542607,0.4150329455787847,0.2735983336226349,0.1859427799053841
0.1200769371679794,0.6162579906497472,0.8428025874834386,0.6684585960922155,0.1032258064516128,0.7651216802988994,0.7879551577300772,0.5802190452303319,0.5837581937363437,0.457577483120475,0.3050859225828849,0.2140572200946159
0.1309763692984062,0.6553763953821201,0.8654820356948016,0.6411661325338571,0.0946898263027295,0.8004645057053418,0.7949943512644477,0.6348131427138198,0.6339090625325149,0.4973155454323599,0.332650581496268,0.2378914169858076
0.14297490382854,0.6786566167350444,0.8742108954874913,0.6218339708466867,0.0955831265508684,0.8184388569120468,0.8142000521421743,0.6772845079842822,0.6723545936947248,0.5250955828520296,0.3519527859746572,0.2547871142149133
0.151676131159553,0.6936361034252457,0.8791208791208791,0.6088080223301974,0.0971712158808932,0.8295466020397859,0.8171547753541323,0.6940055179332831,0.6882218291540944,0.5368909135280241,0.3595903488977608,0.2609596756026132
0.1415094339622641,0.6919187100467513,0.8864468864468864,0.6154243771322238,0.0870471464019851,0.8334848025850751,0.8165464499869645,0.6952595936794583,0.6913952762459682,0.5388025705686162,0.3591737545565007,0.258481640009011
0.131617512364902,0.6881022803167637,0.8916686150728703,0.6230745373720665,0.0783126550868486,0.8347975361001716,0.8113322325540974,0.6900760805952679,0.6904068255124338,0.5377450581631823,0.3572296476306197,0.2534805136291957
0.1337241252976735,0.7022230703177178,0.9014106460914972,0.6142871911506255,0.0732506203473945,0.8486317277592649,0.8108977144346918,0.6937547027840482,0.694984913120383,0.5431139672984625,0.3605276861655963,0.2551025005631899
0.139586004762777,0.7201602900486596,0.9110747408619748,0.6012612426341363,0.070272952853598,0.864384529940422,0.8258451377422438,0.7079675612406989,0.7067942981999793,0.5524282111770926,0.3663947231383441,0.2612300067582789
0.1438908224949624,0.72617116687339,0.9123996570805082,0.5954719321823633,0.0717617866004962,0.8684237099868727,0.840271139306509,0.7239361257419948,0.7180314223285819,0.5588546327178069,0.3702829369901059,0.2652849740932642
0.1349148195640227,0.7183474859269154,0.9135687008027432,0.6048795616664944,0.0662034739454094,0.8649904069473895,0.8421830190318936,0.7225148398963298,0.7180834460513995,0.5576344260961523,0.3696233292831106,0.2644739806262672
0.1177871405019234,0.7047991603854594,0.917075831969449,0.6218339708466867,0.0546898263027295,0.8600424113904878,0.8353176327452854,0.7141543349218292,0.7133492872749975,0.5569429756772147,0.3689290053810102,0.2628970488848839
0.1187030591683458,0.7053716248449575,0.9167640869768529,0.6210069264964333,0.0552853598014888,0.8601433908916489,0.838706874076649,0.7178329571106095,0.717094995317865,0.5606442690962335,0.372574205867037,0.2658256364045956
0.1299688587653416,0.7223547371434024,0.9210505806250489,0.6053964643854027,0.0587593052109181,0.8719579925275169,0.8489615016946207,0.7318786054677703,0.7290604515659141,0.5699178394208085,0.3800381878146155,0.2743410678080649
0.1357391463638028,0.7426772254555863,0.9328189540955498,0.5911299493435335,0.0543920595533498,0.890336261738867,0.8488745980707395,0.7381489841986456,0.7345749661845802,0.5728463353127796,0.3817045651796563,0.2763234962829466
0.1272211027660743,0.7389562064688485,0.9368716389992986,0.5979530652331231,0.0471464019851116,0.8910431182469959,0.842443729903537,0.7301228994231251,0.729996878576631,0.5677214675018303,0.376740149279639,0.2707817075917999
0.1185198754350613,0.7263619883598894,0.934065934065934,0.6097384472242324,0.0441687344913151,0.8825608401494496,0.8325367167810898,0.7185017975085695,0.7208407033607325,0.5607256162043439,0.3695538968929006,0.2621761658031088
0.1178787323685656,0.7215914511974049,0.9307146753955264,0.6126331024501188,0.0460545905707196,0.8778148035948702,0.8359259581124532,0.7200066884039796,0.7217771303714494,0.5608476368665094,0.3692067349418504,0.2604640684838927
0.1292361238322036,0.7242629520083962,0.923232795573221,0.6048795616664944,0.0569727047146401,0.8743815005553872,0.844790127748327,0.728618008527715,0.7274997398813859,0.5658098104612381,0.372539489671932,0.2642937598558234
0.1363802894302985,0.7279839709951341,0.9202712181435584,0.5987801095833764,0.0626302729528536,0.8744824800565484,0.8525245502737464,0.7349719923083354,0.7315055665383415,0.5684535914748231,0.3737198403055025,0.2660959675602613
0.1257556328997985,0.718442896670165,0.9214402618657938,0.6099452083117957,0.0561786600496278,0.8701403615066141,0.8509602850438863,0.7317113953682802,0.7290084278430965,0.5656064426909623,0.370456517965631,0.2615003379139446
0.1171459974354277,0.7046083388989601,0.917387576962045,0.6222474930218134,0.0540942928039702,0.8601433908916489,0.8422699226557747,0.7238525206922498,0.7234418895016127,0.5609289839746197,0.3658739802117688,0.2543365622888038
0.122183550100751,0.7082339471424483,0.9161405969916608,0.6174919880078569,0.057667493796526,0.8613551449055841,0.8399235248109846,0.7254410166374049,0.7262511705337634,0.5636134385422598,0.36823468147891,0.2553728317188556
0.1306100018318373,0.719397004102662,0.9180110669472372,0.6067404114545643,0.0609429280397022,0.8684237099868727,0.8531328756409142,0.7408243457904857,0.7361877015919259,0.570039860082974,0.3718104495747267,0.2603289029060599
0.1319838798314709,0.7225455586299018,0.9194918556620684,0.6042592784038044,0.0607444168734491,0.8710491770170655,0.8596506474319979,0.7480143800685561,0.7401415045260639,0.5718701700154559,0.3720187467453567,0.2618157242622212
0.125572449166514,0.7248354164678943,0.9268178629880756,0.6065336503670009,0.0527047146401984,0.87700696758558,0.8481793690796906,0.7402391104422706,0.7355634169181147,0.569511103880257,0.370525950355841,0.2592475782833972
0.1151309763692984,0.7113825016696881,0.9247135842880524,0.6197663599710534,0.0483374689826302,0.8685246894880339,0.834970018249761,0.7313769751693001,0.7309853293101655,0.5658504840152933,0.3677139385523347,0.2551025005631899
0.1207180802344751,0.707089018223452,0.9165302782324058,0.6189393156208002,0.0565756823821339,0.8609512269009392,0.8368818979751456,0.7368949084524705,0.7364998439288316,0.568941674123485,0.3694150321124805,0.2558233836449651
0.1352811870305916,0.7145310561969278,0.9102174421323356,0.6067404114545643,0.0684863523573201,0.8607492678986166,0.8498305379334318,0.7563748850430566,0.748829466236604,0.5768730171642398,0.3757333796215935,0.2629421040774949
0.1397691884960615,0.7195878255891615,0.9104512508767828,0.6014680037216995,0.0707692307692307,0.8636776734322932,0.8549578517424177,0.7669091213109271,0.7551243366975341,0.5809810461238103,0.3788231209859399,0.2657805812119846
0.131251144898333,0.7159622173456731,0.9147377445249786,0.6081877390675074,0.0634243176178659,0.8644855094415832,0.842530633527418,0.7567093052420366,0.7503381541983144,0.5783779386642804,0.3754209338656484,0.2614552827213336
0.1208096721011174,0.7127182520751837,0.9209726443768996,0.6158378993073503,0.0537965260545905,0.8668080379682924,0.8215868601720691,0.7377309589499205,0.7418062636562273,0.571341413812739,0.3702482207950009,0.25415634151836
0.1207180802344751,0.7231180230893999,0.9296235679214404,0.6102553499431407,0.0482382133995037,0.8779157830960315,0.8188928478317545,0.7354736226068054,0.7427426906669442,0.5709753518262426,0.3693455997222704,0.252399189006533
0.1314343286316175,0.74458544032058,0.9378848102252356,0.5925772769564768,0.048833746898263,0.8946783802888013,0.8290605718258451,0.7531978931527464,0.753823743627094,0.5791914097453835,0.3753167852803333,0.2587069159720658
0.1334493496977468,0.7522182997805554,0.9424830488660276,0.5873048692236121,0.0469478908188585,0.9016459658689284,0.8355783436169288,0.765153415266282,0.7614192071584643,0.5837061742455056,0.3774344731817393,0.2613651723361117
0.1296024912987726,0.7476385841045703,0.9420933676252824,0.5919569936937868,0.0451612903225806,0.8989195193375744,0.8321021986616842,0.7606387425800517,0.7591301633544897,0.5815911494346375,0.3755597986460684,0.25938274386123
0.1216339989008975,0.7404827783608434,0.9429506663549216,0.6003308177401013,0.0402977667493796,0.8957891548015753,0.8242808725123838,0.7549535991973916,0.7579856414525025,0.5806963312454242,0.3739281374761326,0.2561387699932417
0.1182450998351346,0.7313233470088732,0.93835242771413,0.607153933629691,0.0412903225806451,0.8879127537109966,0.8295819935691318,0.764150154669342,0.7653209863697846,0.5871227527861385,0.3767054330845339,0.2579409776976796
0.1281370214324968,0.7386699742390994,0.9359364040215102,0.5976429236017782,0.0482382133995037,0.8902352822377056,0.8466151038498304,0.7835465262101832,0.7775985849547394,0.594688033840397,0.3815657003992363,0.2621311106104979
0.1320754716981132,0.7419139395095888,0.9352349777881692,0.5936110823942933,0.050818858560794,0.8914470362516408,0.8568697314678021,0.7977593846668339,0.7884195193008012,0.601602538029773,0.3861829543482035,0.2670421266050912
0.1245649386334493,0.731704989981872,0.933208635336295,0.6034322340535511,0.0480397022332506,0.8847823891749973,0.8532197792647954,0.8013544018058691,0.7912288003329518,0.6032701537460343,0.3850720361048429,0.2641135390853796
0.1182450998351346,0.7259803453868906,0.933987997817785,0.610151969399359,0.0441687344913151,0.8822579016459658,0.8472234292169982,0.8015216119053591,0.790552491936323,0.6003823314081185,0.3802812011803507,0.2570849290380717
0.1279538376992122,0.7381929205228509,0.9357805315252123,0.5980564457769048,0.0482382133995037,0.8898313642330608,0.8523507430259841,0.8142295794665998,0.8018936635105609,0.6064833645163915,0.3835792397153272,0.2585266952016219
0.1361055138303718,0.7543173361320485,0.9419374951289844,0.5847203556290707,0.0487344913151364,0.9023528223770574,0.8689493351872772,0.837806203494691,0.8181250650296535,0.6181566745302204,0.3910779378580108,0.2649695877449876
0.1390364535629236,0.7596603377540312,0.9438079650845608,0.5800682311588959,0.0491315136476426,0.9064929819246692,0.8824193968888503,0.8590418861299223,0.830974924565602,0.6271862035304645,0.3953133136608228,0.2690696102725839
0.1302436343652683,0.7508825493750597,0.9441197100771568,0.5897860022743721,0.0441687344913151,0.9020498838735737,0.8785087338142,0.8612992224730373,0.8337321818749351,0.6255999349223136,0.3909737892726957,0.2644739806262672
0.1199853453013372,0.7379066882931018,0.9422492401215804,0.6027085702470796,0.0398014888337468,0.8939715237806725,0.8729469018858087,0.8611320123735474,0.8339402767662054,0.6227121125843976,0.3868772782503037,0.2587069159720658
0.1238322037003114,0.7365709378876062,0.9378848102252356,0.6011578620903545,0.0446650124069478,0.8904372412400282,0.8810289389067524,0.873923584984533,0.8424201435854749,0.6282030423818433,0.38955042527339,0.2605091236765037
0.1344568602308115,0.7509779601183093,0.9406125789104512,0.5874082497673938,0.0487344913151364,0.8997273553468645,0.8925002172590597,0.8959117130674693,0.8545936947247945,0.637151224273977,0.3957299080020829,0.2673124577607569
0.1436160468950357,0.760328212956779,0.9404567064141532,0.5771735759330094,0.053697270471464,0.9046753509037664,0.8950204223516119,0.91129504222055,0.8629174903756114,0.6417066623281542,0.3986460683909044,0.2706465420139671
0.1375709836966477,0.7534586394428013,0.9399890889252592,0.584306833453944,0.050818858560794,0.900636170857316,0.8843312766142347,0.909873756374885,0.8634377276037873,0.6399983730578378,0.395625759416768,0.266321243523316
0.1285033888990657,0.7383837420093503,0.9353908502844672,0.5976429236017782,0.0487344913151364,0.8897303847318994,0.8759016250977666,0.9054426887383998,0.8613047549682656,0.6351175465712194,0.3897587224440202,0.2582113088533453
0.1325334310313244,0.7350443659956112,0.9291559504325462,0.5971260208828699,0.0548883374689826,0.8839745531657073,0.8781611193186756,0.90995736142463,0.8625533243158882,0.6345074432603921,0.3882312098593994,0.2573102050011264
0.1438908224949624,0.7406735998473428,0.9241680305510092,0.5876150108549572,0.0643176178660049,0.8836716146622235,0.8850265056052836,0.9220800936376556,0.8709291436895223,0.6404051085983894,0.3943759763929874,0.2638882631223249
0.1510349880930573,0.7465890659288237,0.922998986828774,0.5803783727902408,0.0688833746898262,0.8860951226900938,0.886764578082906,0.929102917816236,0.876391634585371,0.6443911168957943,0.3983683388300642,0.2695201621986934
0.1445319655614581,0.7460166014693255,0.927908970462162,0.5844102139977256,0.0622332506203473,0.8889225487226093,0.877813504823151,0.9195719421453056,0.8716574758089689,0.6406898234767754,0.3949661517097727,0.2657805812119846
0.1396775966294192,0.7442037973475814,0.9306367391473774,0.5881319135738654,0.0578660049627791,0.8897303847318994,0.8611280090379768,0.9031853523952847,0.8609405889085424,0.6352395672333848,0.3903836139559105,0.2606442892543366
0.1479208646272211,0.7506917278885603,0.9290000779362482,0.5799648506151143,0.0633250620347394,0.8921538927597696,0.8546971408707743,0.8969985787141543,0.8578711892623037,0.6343447490441715,0.3908002082971706,0.2624915521513854
0.1592782560908591,0.7626180707947716,0.9290000779362482,0.5671456631861883,0.0695781637717121,0.8984146218317681,0.8602589727991657,0.9011788312014044,0.8609405889085424,0.638696819328073,0.3976045825377539,0.2722685289479613
0.1661476460890273,0.7650033393760138,0.9251032655287974,0.5619766359971053,0.0757320099255582,0.8971018883166716,0.8597375510558789,0.9001755706044644,0.8594319009468318,0.639510290409176,0.4024301336573512,0.2811444018923181
0.1593698479575013,0.754221925388799,0.922063751850986,0.5715910265687997,0.0739454094292803,0.8894274462284156,0.8468758147214739,0.8857955020483238,0.850067630839663,0.6343040754901164,0.4026384308279813,0.2824059472854247
0.1613848690236307,0.7484972807938174,0.9157509157509156,0.5735552569006512,0.079106699751861,0.882358881147127,0.8298427044407752,0.8622188780202324,0.8348767037769222,0.6265761002196372,0.39986113521958,0.2799279116918224
0.1748488734200403,0.7651941608625131,0.917855194450939,0.5569109893518039,0.085062034739454,0.8925578107644148,0.8232380290258102,0.8536075578964969,0.829778378940797,0.6279590010575123,0.4044783891685471,0.2878125703987384
0.1924345118153508,0.7821772731609581,0.9167640869768529,0.5377855887521968,0.0952853598014888,0.9008381298596384,0.8279308247153906,0.8604631719755873,0.8327437311414005,0.6325144391116896,0.412567262628016,0.2989862581662536
0.2040666788789155,0.7826543268772065,0.9072558647026732,0.5309624728626072,0.1076923076923076,0.894981318792285,0.826018944990006,0.8556140790903771,0.8291540942669858,0.6341820548279509,0.4192327720881791,0.3085830141923857
0.203517127679062,0.781891040931209,0.9070999922063752,0.5316861366690788,0.1074937965260545,0.8944764212864788,0.8072477622316849,0.8298637237689156,0.8122463843512642,0.6258846498006996,0.4172886651622982,0.3080874070736653
0.1976552482139585,0.7775021467417232,0.9085028446730574,0.5373720665770702,0.1033250620347394,0.893062708270221,0.7892587120882941,0.8005183513084191,0.7938820101966497,0.6166517530301798,0.4137476132615865,0.3055643162874521
0.1993954936801612,0.769869287281748,0.9007871561063048,0.54047348289052,0.1091811414392059,0.8839745531657073,0.7882158686017207,0.7906529554385086,0.7870148787847259,0.6149434637598633,0.4161430307238327,0.3096643388150484
0.2138670086096354,0.7801736475527146,0.8969682799470033,0.5267238705675592,0.1195037220843672,0.8870039382005452,0.7968193273659512,0.7970069392191289,0.7886796379148892,0.6185227365167169,0.4211074466238501,0.31876548772246
0.2209195823410881,0.7864707566071941,0.8959551087210661,0.5193838519590613,0.123970223325062,0.8896294052307382,0.7969062309898323,0.7906529554385086,0.7839975028613048,0.6177499389896689,0.4236764450616213,0.3230907862131111
0.2180802344751785,0.780650701268963,0.8936949575247447,0.5241393569730177,0.1238709677419354,0.8850853276784812,0.7818719040583992,0.765153415266282,0.7674019352824889,0.6088831042056455,0.4215934733553203,0.3209281369677855
0.2102033339439457,0.7644308749165156,0.8871483126802276,0.5373720665770702,0.1237717121588089,0.8722609310310007,0.7713565655687843,0.745171808377226,0.7541358859639996,0.6006670462865045,0.4186078805762888,0.3186303221446271
0.2100201502106612,0.7552714435645453,0.8798223053542202,0.5424377132223714,0.1283374689826302,0.8626678784206806,0.7778743373598678,0.7439177326310509,0.7521069607741131,0.6007483933946148,0.4210727304287451,0.3217391304347826
0.2173474995420406,0.7604236237000287,0.8777959629023458,0.5355112167890003,0.1335980148883374,0.8640815914369383,0.7880420613539585,0.7478471699690662,0.7530433877848299,0.6025787033270967,0.4241624717930915,0.3257039873845461
0.2188129694083165,0.7613777311325257,0.8773283454134517,0.5341672697198387,0.1346898263027295,0.8642835504392609,0.7928217606674197,0.747763564919321,0.7501820830298617,0.6005856991783942,0.4238847422322514,0.3263347600810993
0.2086462722110276,0.756034729510543,0.8816927753097966,0.5427478548537165,0.1263523573200992,0.8642835504392609,0.7844790127748328,0.7305409246718502,0.7373842472167309,0.5909460668673229,0.4160388821385176,0.3169182248254111
0.1988459424803077,0.7501192634290623,0.8851219702283531,0.5515352010751576,0.1189081885856079,0.8633747349288095,0.7763100721300078,0.7159936460162193,0.7265112891478515,0.584600992434719,0.4114910605797605,0.3123676503717053
0.2048910056786957,0.7525045320103044,0.8820045203023926,0.5468830766049829,0.1241687344913151,0.8626678784206806,0.7845659163987138,0.7233508903937799,0.7306211632504422,0.5878548767591313,0.4155528554070474,0.3176391079071863
0.2156988459424803,0.7634767674840188,0.8817707115579456,0.5347875529825287,0.1302233250620347,0.8682217509845501,0.7993395324585035,0.7373129337011957,0.738684840287171,0.5930204181241356,0.4204825551119597,0.3255688218067132
0.2152408866092691,0.7702509302547468,0.8875379939209727,0.5313759950377339,0.1262531017369726,0.8755932545693224,0.8046406535152516,0.7410751609397208,0.7409218603683281,0.5950134222728382,0.4224960944280507,0.3284974093264248
0.2034255358124198,0.7593741055242822,0.8887849738913569,0.5438850408353149,0.1190074441687344,0.8706452590124204,0.7962979056226644,0.7292868489256751,0.7333263968369578,0.5901325957862198,0.4183648672105537,0.3232259517909439
0.1931672467484887,0.7463028336990747,0.8867586314394824,0.5568076088080223,0.1148387096774193,0.862465919418358,0.7898670374554619,0.7173313268121394,0.7247945062948705,0.5820792320832995,0.4108314528727652,0.3150709619283622
0.1977468400806008,0.7460166014693255,0.8827059465357336,0.5544298563010441,0.1198014888337468,0.8596384933858426,0.7955157730077344,0.7197558732547445,0.7266153365934866,0.5821605791914097,0.41051900711682,0.3151160171209732
0.2077303535446052,0.749260566739815,0.8769386641727067,0.5469864571487645,0.1289330024813895,0.8576189033626174,0.8123750760406708,0.7341359418108854,0.7344188950161274,0.5876921825429106,0.414615518139212,0.3195764811894571
0.206539659278256,0.7490697452533156,0.877718026654197,0.5477101209552362,0.1278411910669974,0.8580228213672624,0.8155036065003911,0.7386506144971156,0.7346269899073978,0.5872854470023591,0.414684950529422,0.3197116467672899
0.1971972888807473,0.7388607957255988,0.8773283454134517,0.5585650780523106,0.1229776674937965,0.8523679693022317,0.805683497001825,0.72686230248307,0.7259910519196754,0.5797201659481005,0.4091650755077243,0.31353908537959
0.1890456127495878,0.7342810800496137,0.8805237315875613,0.5655949550294634,0.1165260545905707,0.8520650307987477,0.7927348570435387,0.7126494440264193,0.7155342836333368,0.5705686162856911,0.4011456344384655,0.3040774949312908
0.1905110826158637,0.7331361511306174,0.878341516639389,0.5653881939419002,0.1187096774193548,0.8500454407755226,0.7996002433301468,0.7167460914639244,0.718135469774217,0.5723582526641178,0.4017705259503559,0.3038071637756251
0.1976552482139585,0.7353305982253602,0.8740550229911931,0.5602191667528171,0.1252605459057071,0.8483287892557811,0.8150690883809855,0.7327982610149653,0.7277078347726563,0.5789473684210527,0.4064919284846381,0.3092137868889389
0.2000366367466568,0.7302738288331266,0.8679759956355702,0.5615631138219787,0.1305210918114143,0.8417651216802988,0.825149908751195,0.746342279073656,0.7340027052335866,0.5817538436508582,0.4075334143377886,0.3102500563189908
0.1888624290163033,0.7166300925484209,0.8662613981762918,0.5753127261449396,0.1254590570719602,0.8334848025850751,0.8165464499869645,0.7399882952930357,0.7278118822182916,0.5766289758399089,0.4018746745356709,0.3038522189682361
0.1830005495511998,0.707089018223452,0.8634556932429273,0.5837899307350356,0.1241687344913151,0.826517217004948,0.8055965933779438,0.7263606721846,0.7201643949641037,0.5717481493532904,0.397847595903489,0.2980400991214237
0.1876717347499542,0.7130998950481825,0.8644688644688645,0.577897239739481,0.1260545905707195,0.8304554175502373,0.8094203528287129,0.7309589499205752,0.7248985537405057,0.5751647278939234,0.39986113521958,0.3008785762559135
0.1959150027477559,0.731704989981872,0.872574234276362,0.5631138219787036,0.1252605459057071,0.8455013632232656,0.8199356913183279,0.7445865730290109,0.7359275829778379,0.581957211421134,0.4043395243881271,0.3062401441766164
0.2010441472797215,0.7503100849155615,0.883407372769075,0.5501912540059961,0.1211910669975186,0.8623649399171966,0.8226297036586424,0.7488504305660062,0.7395172198522526,0.5844382982184984,0.4056587398021177,0.3072313584140572
0.1980216156805275,0.7533632286995516,0.8885511651469099,0.5502946345497778,0.116228287841191,0.8673129354740987,0.8063787259928739,0.7395702700443106,0.7353032983040267,0.5828113560562922,0.4059364693629578,0.306510475332282
0.1908774500824326,0.7396240816715962,0.8833294365209259,0.561769874909542,0.1157320099255583,0.8566091083510047,0.7969931346137135,0.7372293286514505,0.7355113931952971,0.5833807858130643,0.4065266446797431,0.3058797026357288
0.1940831654149111,0.7401965461310944,0.8809913490764554,0.5595988834901271,0.1189081885856079,0.8554983338382308,0.8041192317719649,0.744502967979266,0.7404536468629696,0.587000732123973,0.4080194410692588,0.3066456409101148
0.2039750870122733,0.7485926915370672,0.8795884966097732,0.5494675901995244,0.1252605459057071,0.8589316368777138,0.8118536542973842,0.7548699941476464,0.745395900530642,0.591230781745709,0.4115604929699705,0.3112863257490426
0.2005861879465103,0.7484972807938174,0.8822383290468396,0.551431820531376,0.1216873449131513,0.8606482883974552,0.8144607630138176,0.7540339436501965,0.7443034023514723,0.590986740421378,0.410345426141295,0.3102500563189908
0.1924345118153508,0.7461120122125753,0.8873041851765255,0.5573245115269306,0.1140446650124069,0.8626678784206806,0.801164508560007,0.7394030599448207,0.7352512745812091,0.586471975921256,0.4059017531678528,0.3031313358864609
0.1862062648836783,0.7362847056578571,0.88457641649131,0.5662152382921534,0.1123573200992555,0.8557002928405534,0.7843052055270705,0.7251065964384249,0.7271875975444804,0.581428455218417,0.4025342822426662,0.2974093264248705
0.1944495328814801,0.7422001717393378,0.8823942015431377,0.5582549364209656,0.118213399503722,0.8574169443602948,0.7837837837837838,0.7234344954435248,0.7267714077619395,0.5809403725697552,0.4028120118035064,0.2991664789366974
0.2058069243451181,0.7538402824158001,0.8822383290468396,0.5455391295358214,0.1244665012406947,0.8634757144299706,0.7934300860345875,0.7352228074575704,0.732754135885964,0.5852924428536566,0.4069085228258983,0.3050687091687317
0.2048910056786957,0.7522182997805554,0.8816927753097966,0.5469864571487645,0.1243672456575682,0.8622639604160355,0.7973407491092378,0.7365604882534904,0.7333784205597753,0.585699178394208,0.4068390904356883,0.3054291507096193
0.1991207180802345,0.7436313328880833,0.8795884966097732,0.5549467590199524,0.1225806451612903,0.8564071493486821,0.7839575910315459,0.7240197307917398,0.7239101030069712,0.5766289758399089,0.3996875542440549,0.2986258166253661
0.1949074922146913,0.7408644213338422,0.8809134128283065,0.5587718391398739,0.1194044665012406,0.8557002928405534,0.7710958546971408,0.7108101329320291,0.7148579752367079,0.5698364923126983,0.3949661517097727,0.2930840279342194
0.1975636563473163,0.7472569411315715,0.883874990257969,0.5538095730383541,0.1190074441687344,0.8610522064021003,0.775006517771791,0.7128166541259091,0.7179273748829467,0.572439599772228,0.3983336226349592,0.2984455958549222
0.2057153324784759,0.7525999427535542,0.8813030940690515,0.5463661738860747,0.125062034739454,0.8622639604160355,0.7909967845659163,0.727113117632305,0.7261991468109459,0.5787440006507769,0.4039576462419719,0.3057895922505068
0.2067228430115405,0.7429634576853354,0.8724962980282129,0.5509149178124677,0.1312158808933002,0.8514591537917803,0.7965586164943077,0.72903603377644,0.7264592654250339,0.5792320832994388,0.4054504426314876,0.3075917999549448
0.1896867558160835,0.7216868619406546,0.8696905930948484,0.572107929287708,0.1237717121588089,0.838331818640816,0.7886503867211263,0.7168296965136695,0.7182395172198524,0.573456438623607,0.4009373372678355,0.3018247353007434
0.1816266715515662,0.7190153611296632,0.8743667679837892,0.5781040008270444,0.1164267990074441,0.839947490659396,0.783870687407665,0.709054426887384,0.7124128602642806,0.5693484096640364,0.3964242319041833,0.2962378914169858
0.1857483055504671,0.72922431065738,0.8791988153690281,0.5702470794996383,0.1155334987593051,0.8485307482581035,0.7919527244286086,0.7141543349218292,0.7150140464051609,0.5720328642316765,0.397882312098594,0.2983554854697004
0.1923429199487085,0.7474477626180709,0.8884732288987608,0.556600847720459,0.1132506203473945,0.8641825709380995,0.8063787259928739,0.7282835883287351,0.7243262927895121,0.577198405596681,0.4023259850720361,0.3032665014642938
0.1912438175490016,0.7567980154565405,0.8970462161951523,0.5521554843378476,0.1071960297766749,0.8746844390588709,0.8091596419570696,0.7308753448708302,0.7258349807512227,0.5782965915561702,0.4026384308279813,0.3036269430051813
0.1815350796849239,0.7497376204560635,0.8995401761359209,0.5615631138219787,0.1003473945409429,0.8724628900333232,0.8001216650734335,0.7174149318618843,0.7173030902091354,0.5719921906776214,0.397882312098594,0.297769767965758
0.1750320571533247,0.7453487262665777,0.9014885823396462,0.567559185361315,0.0955831265508684,0.8714530950217106,0.7915182063092031,0.7047069643006437,0.708927270835501,0.5664199137720655,0.393612220100677,0.2918675377337238
0.1762227514196739,0.743726743631333,0.8991504948951757,0.5677659464488783,0.0977667493796526,0.8691305664950015,0.7992526288346224,0.7086364016386589,0.710123816460306,0.565769136907183,0.3929873285887867,0.2933994142824961
0.1806191610185015,0.7483064593073182,0.8991504948951757,0.5628036803473586,0.1001488833746898,0.8714530950217106,0.8118536542973842,0.7193378480060195,0.7135573821662679,0.5690230212315952,0.3955216108314529,0.2965082225726515
0.1787873236856566,0.7486881022803168,0.901020964850752,0.5636307246976119,0.0978660049627791,0.8729677875391295,0.805770400625706,0.7107265278822841,0.7077307252106961,0.564996339380135,0.3935080715153619,0.2929038071637756
0.1686206264883678,0.7358076519416087,0.8991504948951757,0.5763465315827562,0.0935980148883374,0.8648894274462283,0.7915182063092031,0.6928350472368531,0.6958172926854647,0.5552346864068982,0.3849678875195279,0.2822707817075918
0.1623007876900531,0.7375250453201031,0.90593094848414,0.5789310451772975,0.0858560794044664,0.8701403615066141,0.783175458416616,0.6822172059192375,0.6898865882842576,0.5513300252176035,0.3813921194237111,0.2771795449425546
0.1677047078219454,0.7472569411315715,0.9092822071545476,0.5706606016747647,0.0866501240694788,0.8775118650913863,0.7905622664465107,0.6881531644511327,0.6952970554572886,0.5542991946636296,0.3830237805936469,0.2800180220770444
0.1727422604872687,0.7486881022803168,0.906164757228587,0.5670422826424066,0.0913151364764267,0.8763001110774512,0.8044668462674893,0.7007775269626285,0.7023202580376652,0.5589359798259173,0.3859052247873634,0.2830817751745889
0.1738413628869756,0.7527907642400534,0.9085807809212064,0.5641476274165202,0.0904218362282878,0.8800363526204181,0.805770400625706,0.7007775269626285,0.7015399021954012,0.558895306271862,0.3868425620551988,0.2848389276864159
0.160377358490566,0.7404827783608434,0.9099056971397398,0.578517523002171,0.0822828784119106,0.8742805210542258,0.7955157730077344,0.6869826937547027,0.6941525335553013,0.5527535996095339,0.3827113348377018,0.2807839603514305
0.151309763692984,0.72922431065738,0.9085028446730574,0.5896826217305903,0.0783126550868486,0.86741391497526,0.786999217867385,0.6749435665914222,0.6869212360836542,0.5464491987309852,0.3780940808887346,0.276909213786889
0.1586371130243634,0.7337086155901155,0.90593094848414,0.5831696474723457,0.0838709677419354,0.8682217509845501,0.7919527244286086,0.6839729119638825,0.6910831339090626,0.5495810623932319,0.3823294566915466,0.28123451227754
0.1712767906209928,0.7463028336990747,0.905463330995246,0.5691098935180399,0.0910173697270471,0.8744824800565484,0.8074215694794472,0.6989382158682385,0.6987826448860681,0.5546652566501261,0.3862176705433084,0.2840729894120297
0.1677047078219454,0.7398149031580956,0.9032811160470734,0.5746924428822495,0.0904218362282878,0.8696354640008078,0.8127226905361953,0.7014463673605886,0.701175736135678,0.5563735459204425,0.3867731296649887,0.2853345348051363
0.1645905843561091,0.7347581337658621,0.9018003273322424,0.5791378062648609,0.0897270471464019,0.8660002019590023,0.7995133397062657,0.6887383997993478,0.6939444386640308,0.5509639632311072,0.3819475785453914,0.2819103401667042
0.1571716431580875,0.7316095792386222,0.905463330995246,0.5851338778041973,0.0833746898263027,0.8667070584671311,0.7911705918136785,0.6802942897751023,0.6878056393715535,0.545106971447165,0.3771220274257941,0.2758729443568371
0.163766257556329,0.7359030626848583,0.9033590522952224,0.5790344257210793,0.0883374689826302,0.8677168534787438,0.7950812548883288,0.6849761725608227,0.6898865882842576,0.5468559342715367,0.3781635132789446,0.27600810993467
0.1699945044880014,0.7424864039690869,0.9034369885433716,0.5720045487439264,0.0916129032258064,0.8711501565182267,0.798991917962979,0.691998996739403,0.6951409842888358,0.5533230293663061,0.3829543482034369,0.2830367199819779
0.1668803810221652,0.7351397767388609,0.9000857298729639,0.5776904786519177,0.0921091811414391,0.8650913864485509,0.7991657252107413,0.6915809714906781,0.6965976485277287,0.5545432359879606,0.3848984551293178,0.2855147555755801
0.160743725957135,0.7236904875488981,0.8959551087210661,0.5874082497673938,0.0913151364764267,0.8564071493486821,0.786303988876336,0.6808795251233174,0.6874934970346479,0.5473440169201985,0.3792397153272002,0.276909213786889
0.1593698479575013,0.7216868619406546,0.8954874912321721,0.5892690995554636,0.0909181141439205,0.8549934363324245,0.7773529156165812,0.6696764484574869,0.6799500572260951,0.54246319043358,0.3756292310362784,0.2726740256814598
0.1698113207547169,0.7269344528193875,0.8908892525913802,0.5804817533340225,0.0995533498759305,0.854791477330102,0.7886503867211263,0.6758632221386172,0.6851004057850381,0.5468966078255918,0.3792049991320951,0.2783960351430502
0.1733834035537644,0.7205419330216583,0.8826280102875848,0.5819290809469657,0.1066997518610421,0.8461072402302332,0.8070739549839229,0.690828526042973,0.6938924149412132,0.5519401285284308,0.3830237805936469,0.2843883757603064
0.1792452830188679,0.71691632477817,0.8746005767282362,0.5805851338778042,0.1149379652605459,0.8389376956477834,0.8050751716346571,0.6937547027840482,0.6937363437727605,0.5520621491905963,0.3826071862523867,0.2839828790268078
0.1721927092874152,0.7089972330884459,0.8742108954874913,0.588855577380337,0.11136476426799,0.834595577097849,0.7927348570435387,0.6805451049243374,0.6862969514098429,0.5455137069877166,0.3764624197187988,0.2766839378238342
0.1653233192892471,0.6994561587634768,0.8721845530356168,0.5979530652331231,0.1089826302729528,0.8281328890235282,0.7893456157121751,0.674107516093972,0.6819789824159818,0.5419344342308631,0.3743100156222878,0.274205902230232
0.1764059351529583,0.7008873199122222,0.8640012469799704,0.5908198077121886,0.120198511166253,0.8236897909724324,0.7976014599808811,0.6874843240531728,0.6890021849963583,0.5477100789066949,0.3795174448880403,0.279477359765713
0.1821762227514196,0.7017460166014694,0.8597926895799236,0.5872014886798305,0.1260545905707195,0.8213672624457236,0.8108108108108107,0.7064626703452889,0.7007595463531371,0.5560481574880013,0.3851067522999479,0.2849740932642487
0.1813518959516394,0.7053716248449575,0.8634556932429273,0.5856507805231056,0.1231761786600496,0.8257093809956578,0.8136786303988877,0.7078839561909539,0.7016959733638539,0.556251525258277,0.3847943065440028,0.2835323271006983
0.1738413628869756,0.7089972330884459,0.8727301067726599,0.5879251524863021,0.1132506203473945,0.8335857820862365,0.8006430868167201,0.691664576540423,0.6918114660285091,0.5483608557715773,0.37910085054678,0.2756026132011714
0.1702692800879282,0.7089018223451962,0.8757696204504716,0.5899927633619353,0.109379652605459,0.8355043926083005,0.7943860258972799,0.6850597776105677,0.6871813546977422,0.5438054177174001,0.3754556500607534,0.2720432529849065
0.1748488734200403,0.7166300925484209,0.878185644143091,0.5832730280161273,0.1103722084367245,0.8411592446733314,0.805683497001825,0.6960956441769083,0.6941005098324837,0.549337021068901,0.37889255337615,0.276864158594278
0.1809855284850705,0.7283656139681329,0.8825500740394358,0.5734518763568697,0.1108684863523573,0.8501464202766837,0.8198487876944468,0.7123986288771842,0.7048173967329103,0.5592206947043032,0.3868078458600937,0.2858751971164677
0.1796116504854369,0.7321820436981205,0.8868365676876315,0.572107929287708,0.107394540942928,0.8549934363324245,0.8211523420526635,0.7120642086782042,0.7062740609718032,0.5609696575286749,0.3895157090782851,0.2891642261770669
0.1732002198204799,0.720923575994657,0.8830956277764789,0.581825700403184,0.1063027295285359,0.8466121377360395,0.810984618058573,0.7001922916144134,0.6993028821142442,0.5553973806231188,0.3855233466412082,0.284658706915972
0.1676131159553031,0.7112870909264384,0.8799781778505181,0.5901995244494986,0.1052109181141439,0.8395435726547511,0.8067263404883983,0.6941727280327732,0.6935802726043075,0.5507199219067762,0.3814962680090262,0.2805586843883758
0.1702692800879282,0.7298921858601279,0.8928376587951057,0.5786209035459526,0.0984615384615384,0.8576189033626174,0.8149821847571043,0.7022824178580386,0.6993549058370617,0.5544212153257952,0.3839611178614824,0.2814147330479837
0.1711851987543506,0.7564163724835418,0.9137245732990412,0.5637341052413936,0.0856575682382134,0.8852872866808038,0.8330581385243764,0.7229328651450546,0.7167308292581418,0.5688196534613195,0.3939246658566221,0.2874521288578509
0.163033522623191,0.7702509302547468,0.9321175278622088,0.5608394500155071,0.0695781637717121,0.904473391901444,0.8548709481185366,0.7502717164116712,0.7432629278951203,0.5909460668673229,0.4073945495573686,0.2936697454381617
0.1547902546253892,0.7689151798492511,0.9379627464733848,0.5662152382921534,0.0613399503722084,0.9076037564374432,0.8488745980707395,0.7512749770086113,0.7499739881385912,0.6032294801919792,0.4201006769658046,0.3028610047307952
0.174757281553398,0.791145883026429,0.93913179019562,0.5428512353974981,0.0714640198511166,0.92012521458144,0.8097679673242374,0.7251065964384249,0.7431068567266673,0.6186447571788822,0.4493317132442284,0.3330479837801307
0.218629785675032,0.8274019654613111,0.9314161016288676,0.4985009821151659,0.1001488833746898,0.9342623447440168,0.7718779873120709,0.711228158180754,0.747372801997711,0.6486618400715854,0.4959902794653706,0.3854922279792745
0.2833852353910972,0.8489647934357409,0.8940067025173408,0.4502222681691305,0.1590074441687344,0.9214379480965365,0.7497175632223864,0.7534487083019814,0.8041306835917179,0.7184576588302285,0.5674014927963896,0.4579409776976796
0.3712218355010075,0.8761568552619026,0.8413997350167562,0.3860229504807195,0.2400992555831265,0.90174694537009,0.693230207699661,0.8145639996655798,0.8913224430340236,0.8234361018465793,0.6741885089394203,0.5656228880378463
0.4892837516028576,0.931685907833222,0.7862988075754034,0.2892587615010854,0.3392555831265508,0.8954862162980913,0.5892065699139654,0.8434913468773514,0.9508375819373636,0.925689416741235,0.8111091824336053,0.7128632574904258
0.6243817549001648,0.949241484591165,0.685605174966877,0.203556290706089,0.4765260545905707,0.8394425931535897,0.4768401842356826,0.8326226904105007,0.949693060035376,0.9818595948914016,0.9301510154487068,0.852444244199144
0.7743176405935153,0.9406545176986928,0.5510872106616788,0.123539749819084,0.6433746898263026,0.747854185600323,0.3522203875901624,0.7539503386004515,0.8725418790968683,0.9663222972423332,0.9938552334664122,0.958143726064429
0.8619710569701411,0.9329262474954682,0.4701893850830021,0.0782590716427167,0.7424317617866005,0.6913056649500151,0.2651429564612844,0.619847838809464,0.7242742690666945,0.8465793541039616,0.9348029855927792,0.9577382293309304
0.841546070708921,0.9131762236427824,0.4715143013015353,0.1004858885557737,0.7305210918114143,0.681712612339695,0.2089163118102024,0.4221218961625282,0.5144105712204766,0.6399983730578378,0.7575420933865649,0.8309078621311107
0.7490382854002564,0.7068981967369526,0.381575870937573,0.264447430993487,0.737667493796526,0.5142885994143189,0.2853915008255844,0.3263941142044979,0.3504317968993861,0.4261368258358415,0.5264363825724702,0.6199594503266502
0.5880197838431946,0.3988169067837038,0.2669316499103733,0.522175126641166,0.7234739454094292,0.2769867716853478,0.4835317632745285,0.3117632304991221,0.243418999063573,0.2375335556820955,0.2848810970317653,0.369407524217166
0.4215973621542406,0.232611392042744,0.2728548047696983,0.7061924945725214,0.6294789081885857,0.1928708472180147,0.6550795168158512,0.2763982944569851,0.1636666319841848,0.1066867322866672,0.117861482381531,0.1838251858526695
0.3065579776515845,0.1549470470374964,0.3073805626997116,0.8131913573865399,0.5452109181141438,0.1741896395031808,0.7704006257060919,0.291614413510576,0.1549786702736448,0.0673960790693891,0.0511022391945842,0.092498310430277
0.2176222751419674,0.1607671023757275,0.3878107707894942,0.8602295048071954,0.4457568238213399,0.2293244471372311,0.8055096897540627,0.2851768246802106,0.1746436374986994,0.0858618726104287,0.0477000520742926,0.054066231133138
0.1276790620992855,0.2026524186623414,0.4984802431610942,0.8883490127158069,0.3265508684863523,0.3232353832172069,0.79673242374207,0.2619346208510993,0.1941005098324836,0.1131945009354917,0.0588786668981079,0.03135841405722
0.0626488367832936,0.2453010208949528,0.5886524822695035,0.9018918639512044,0.2338461538461538,0.4041199636473795,0.7949943512644477,0.2689574450296798,0.2273436687129331,0.1494346375986333,0.080194410692588,0.0257715701734624
0.0533064663857849,0.3245873485354451,0.6613670017925337,0.8642613460146801,0.182531017369727,0.4931838836716146,0.823672547145216,0.3432823342529889,0.3092810321506607,0.2226063613438542,0.132754730081583,0.0612750619508898
0.0540392013189228,0.4370766148268295,0.7526303483750293,0.8028533030083739,0.1248635235732009,0.6119357770372613,0.8634744068827671,0.4483738817824597,0.4158256164811154,0.3122102009273571,0.1967019614650234,0.1118720432529849
0.0712584722476643,0.523709569697548,0.8086665107941703,0.746200765016024,0.0984615384615384,0.6940321114813692,0.8422699226557747,0.5127497700861132,0.4925085839142649,0.3785487675913121,0.2467279986113522,0.1548096418112187
0.0907675398424619,0.5787615685526191,0.8371132413685606,0.7053654502222682,0.0909181141439205,0.7415934565283248,0.8148083775093421,0.5545522949586155,0.5480699198834669,0.4276824208899373,0.2834230168373547,0.1878801531876548
0.1098186481040483,0.6363896574754317,0.8679759956355702,0.6633929494469141,0.0815880893300247,0.7920832071089569,0.8015990266794125,0.5996990218209179,0.5994173343044429,0.4712031237289514,0.313834403749349,0.2142374408650597
0.139586004762777,0.6853353687625228,0.8826280102875848,0.6200765016023985,0.0883374689826302,0.8275270120165605,0.8072477622316849,0.6542095142546609,0.6506086775569659,0.5113479215813878,0.3429612914424579,0.2406397837350755
0.1582707455577944,0.7018414273447191,0.8802119865949654,0.6005375788276647,0.1000496277915632,0.834595577097849,0.8135048231511254,0.6840565170136277,0.6792737488294663,0.5320507605954609,0.3574379448012498,0.2551025005631899
0.153965927825609,0.7078523041694494,0.8887849738913569,0.5998139150211931,0.0922084367245657,0.8433807936988791,0.8068132441122794,0.6870662988044478,0.6857246904588492,0.5368909135280241,0.3597639298732859,0.2548772246001352
0.1424253526286865,0.7018414273447191,0.8936949575247447,0.6095316861366691,0.0828784119106699,0.8433807936988791,0.801164508560007,0.6805451049243374,0.6831755280407867,0.5340030911901081,0.3565700399236244,0.2472178418562739
0.1358307382304451,0.7018414273447191,0.8993063673914738,0.6132533857128089,0.0757320099255582,0.8470160557406846,0.7972538454853567,0.6782041635314773,0.6842680262199564,0.5361181160009761,0.3566047561187294,0.2465870691597206
0.1401355559626305,0.7116687338994371,0.9036707972878186,0.6054998449291843,0.0752357320099255,0.8550944158335857,0.8041192317719649,0.6877351392024078,0.6921756320882323,0.5428292524200765,0.3614997396285367,0.2531651272809191
0.14828723209379,0.718442896670165,0.9022679448211364,0.5972294014266515,0.0805955334987592,0.8577198828637786,0.8168071608586077,0.7016971825098236,0.700239309124961,0.5484015293256325,0.3651796563096685,0.2571299842306826
0.1427001282286132,0.7121457876156856,0.9018782635803912,0.6038457562286778,0.0778163771712158,0.8540846208219731,0.8173285826018946,0.7011955522113534,0.7009676412444075,0.5493776946229562,0.3652490886998785,0.2546970038296914
0.1296024912987726,0.7036542314664631,0.906086820980438,0.6158378993073503,0.0680893300248138,0.8523679693022317,0.8075953767272095,0.6931694674358332,0.6973780043699928,0.546977954933702,0.3626453740670023,0.250596981302095
0.1297856750320571,0.7068981967369526,0.9085807809212064,0.6138736689754988,0.0666004962779156,0.8557002928405534,0.8060311114973495,0.6929186522865982,0.6976901467068984,0.5477914260148052,0.3630966846033674,0.2491101599459337
0.1391280454295658,0.715389752886175,0.9075676096952692,0.6040525173162411,0.072258064516129,0.8595375138846815,0.8170678717302511,0.708385586489424,0.7098116741234003,0.5568616285691044,0.3703176531852109,0.2569497634602388
0.1476460890272943,0.72617116687339,0.9091263346582495,0.59340432130673,0.0758312655086848,0.866303140462486,0.8280177283392718,0.7250229913886799,0.7217251066486318,0.5656471162450175,0.3765318521090088,0.2649695877449876
0.1462722110276607,0.7300830073466273,0.9134907645545944,0.5920603742375685,0.0723573200992555,0.8711501565182267,0.8295819935691318,0.7296212691246551,0.7248465300176882,0.567924835272106,0.3773650407915292,0.2645640910114891
0.1441655980948891,0.7234996660623987,0.9099056971397398,0.5968158792515249,0.0735483870967741,0.8652933454508734,0.8185452333362302,0.7204247136527047,0.7212048694204558,0.564426909623363,0.3744141642076029,0.2600135165577833
0.1435244550283934,0.7281747924816335,0.9142701270360843,0.59464488783211,0.0703722084367245,0.8706452590124204,0.8121143651690275,0.7147395702700443,0.7184476121111227,0.5632067030017083,0.3734073945495574,0.2580761432755125
0.14828723209379,0.7435359221448335,0.922765178084327,0.5835831696474723,0.0675930521091811,0.884277491669191,0.8212392456765447,0.7224312348465847,0.7236499843928832,0.5677214675018303,0.3771914598160042,0.2626267177292183
0.1572632350247297,0.7554622650510447,0.9249473930324994,0.572107929287708,0.0709677419354838,0.8920529132586085,0.8300165116885373,0.7354736226068054,0.7326500884403289,0.5742699097047099,0.3819822947404965,0.2682135616129759
0.1567136838248763,0.7509779601183093,0.92175200685839,0.5748992039698129,0.0727543424317617,0.8875088357063515,0.8292343790736074,0.7359752529052753,0.734470918738945,0.5766289758399089,0.3838222530810623,0.2699707141248029
0.1485620076937167,0.7389562064688485,0.9187904294287274,0.5859609221544505,0.070272952853598,0.8793294961122892,0.8198487876944468,0.7267786974333249,0.730256997190719,0.5736191328398276,0.381044957472661,0.2665465194863708
0.1525004579593331,0.7421047609960881,0.9180110669472372,0.5820324614907474,0.0728535980148883,0.880440270625063,0.8123750760406708,0.7256082267368948,0.7308812818645303,0.573456438623607,0.381010241277556,0.2662311331380941
0.1655065030225316,0.7605190344432784,0.9219078793546878,0.5646645301354285,0.0774193548387096,0.8927597697667373,0.8213261493004258,0.7421620265864058,0.7423265008844033,0.5815098023265273,0.3876757507377192,0.2731245776075692
0.1700860963546437,0.7777883789714722,0.9321954641103576,0.5527757676005376,0.0733498759305211,0.9085125719478944,0.8313200660467541,0.7587158264359167,0.753823743627094,0.5891564304888961,0.3931956257594168,0.2784861455282721
0.1623923795566953,0.7749260566739816,0.9364040215104046,0.5586684585960922,0.066501240694789,0.9097243259618296,0.8295819935691318,0.7563748850430566,0.7527832691707419,0.588058244529407,0.3916681131747961,0.2765037170533904
0.1564389082249496,0.764621696403015,0.9330527628399968,0.5676625659050967,0.065409429280397,0.9020498838735737,0.8152428956287476,0.745924253824931,0.7472167308292582,0.5842349304482226,0.3879881964936643,0.2725388601036269
0.1528668254259021,0.7609960881595269,0.933130699088146,0.5715910265687997,0.0634243176178659,0.9002322528526708,0.8089858347093073,0.7394866649945656,0.7428467381125794,0.5796388188399902,0.3833362263495921,0.2670871817977022
0.1588202967576479,0.7671977864707566,0.933130699088146,0.5648712912229918,0.0666997518610421,0.9034635968898314,0.819240462327279,0.746342279073656,0.7485173238996984,0.58358415358334,0.3856274952265232,0.2699707141248029
0.169444953288148,0.7623318385650225,0.9201153456472606,0.5614597332781971,0.0806947890818858,0.8924568312632536,0.8373164160945511,0.764735390017557,0.7600665903652066,0.5928577239079151,0.3918069779552162,0.2781257039873845
0.1631251144898333,0.7578475336322871,0.9218299431065388,0.567559185361315,0.076228287841191,0.8912450772493185,0.8351438254975232,0.7635649193211269,0.7599625429195714,0.5915968437322053,0.3912862350286409,0.2766839378238342
0.1479208646272211,0.7488789237668162,0.927441352973268,0.5809986560529309,0.0644168734491315,0.8901343027365445,0.8224558964108803,0.7486832204665161,0.7504422016439497,0.5853737899617668,0.3857663600069433,0.267222347375535
0.1461806191610185,0.7563209617402921,0.9350011690437222,0.577897239739481,0.0585607940446649,0.8990204988387357,0.8118536542973842,0.7389014296463505,0.7467485173238997,0.5826486618400716,0.3827460510328068,0.2625816625366073
0.1550650302253159,0.7737811277549854,0.9417036863845374,0.5634239636100487,0.0591563275434242,0.9125517519943452,0.8196749804466846,0.7502717164116712,0.7551243366975341,0.587814203205076,0.3856274952265232,0.2661860779454832
0.166422421688954,0.7816048087014599,0.9384303639622787,0.5527757676005376,0.067394540942928,0.9145713420175704,0.8310593551751109,0.7664910960622021,0.7651649152013319,0.5948914016106728,0.3897587224440202,0.271592701058797
0.160377358490566,0.7641446426867666,0.9293118229288442,0.5655949550294634,0.0698759305210917,0.8994244168433808,0.8319283914139219,0.7681631970571022,0.7664134845489543,0.5961522817863825,0.3890643985419198,0.2709619283622437
0.1525004579593331,0.7472569411315715,0.9221416880991348,0.5792411868086426,0.070272952853598,0.8858931636877713,0.8208916311810203,0.7570437254410166,0.7610030173759235,0.5922476205970878,0.3849678875195279,0.2647893669745438
0.1540575196922513,0.7589924625512834,0.9304808666510794,0.5720045487439264,0.0658064516129032,0.8975058063213167,0.8128964977839576,0.7543683638491765,0.7611590885443763,0.5919222321646466,0.3834403749349071,0.262041000225276
0.1671551566220919,0.7816048087014599,0.9378068739770868,0.5523622454254109,0.0681885856079404,0.9141674240129254,0.8195880768228035,0.7690828526042972,0.7705233586515452,0.5979012446107541,0.3872938725915639,0.2679882856499211
0.1715515662209195,0.7826543268772065,0.9348452965474242,0.5493642096557427,0.0724565756823821,0.9127537109966676,0.8341878856348309,0.7877267786974333,0.7817604827801478,0.6051004636785162,0.3923971532720014,0.2738905158819554
0.1622091958234108,0.7650033393760138,0.928454524199205,0.5641476274165202,0.0714640198511166,0.8993234373422194,0.8369688015990266,0.7903185352395284,0.7841535740297576,0.6054665256650126,0.3912862350286409,0.2716828114440189
0.1535079684923978,0.7508825493750597,0.9243239030473072,0.5767600537578826,0.069379652605459,0.8891245077249318,0.8262796558616493,0.7852186272050832,0.7813963167204245,0.6012771495973318,0.3863912515188335,0.2643388150484343
0.1552482139586004,0.7533632286995516,0.9248694567843504,0.5743823012509045,0.0699751861042183,0.8908411592446733,0.8247153906317893,0.7861382827522783,0.783321194464676,0.6011958024892216,0.3839958340565874,0.2595629646316738
0.1623923795566953,0.7634767674840188,0.9270516717325228,0.5648712912229918,0.0724565756823821,0.897606785822478,0.8381854523333623,0.8044477886464342,0.7938820101966497,0.6061986496380054,0.3850720361048429,0.2617706690696103
0.1650485436893203,0.7732086632954872,0.9327410178474008,0.5580481753334023,0.070272952853598,0.906392002423508,0.8550447553662986,0.8267703369283503,0.8060555613359692,0.612991133165216,0.3879881964936643,0.2638432079297139
0.1590034804909324,0.7730178418089878,0.9377289377289376,0.5615631138219787,0.0638213399503722,0.9096233464606684,0.8533066828886764,0.8317866399130508,0.8104255540526482,0.61539087285447,0.3879187641034542,0.2612300067582789
0.1468217622275141,0.7666253220112585,0.9429506663549216,0.5720045487439264,0.0538957816377171,0.9095223669595072,0.8429651516468237,0.8284424379232506,0.8106856726667361,0.6153095257463597,0.3855580628363131,0.2577607569272359
0.1469133540941564,0.7715866806602425,0.9469254150105214,0.5692132740618215,0.0514143920595533,0.9147733010198928,0.8394890066915791,0.8329571106094809,0.8156279263344086,0.6160416497193525,0.3844124283978476,0.255868438837576
0.1593698479575013,0.7935311516076711,0.9541734860883796,0.5502946345497778,0.0534987593052109,0.9311319802080178,0.8473103328408794,0.8489256751107768,0.8268650504630113,0.6242170340844383,0.3896198576636001,0.2618157242622212
0.1651401355559626,0.799732849918901,0.9543293585846776,0.5436782797477515,0.0565756823821339,0.9344643037463396,0.8565221169722778,0.8703285678454978,0.8394027676620539,0.6326771333279102,0.3942718278076723,0.2665465194863708
0.1644989924894669,0.7887606144451866,0.9458343075364352,0.5499844929184328,0.061637717121588,0.9231545996162778,0.852263839402103,0.8778530223225482,0.8449693060035376,0.6327178068819653,0.3920847075160563,0.2642487046632125
0.1616596446235574,0.7857074706611966,0.9458343075364352,0.5532926703194458,0.0600496277915632,0.9215389275976976,0.8310593551751109,0.8694089122983027,0.8414316928519405,0.6284470837061742,0.3876410345426141,0.2587519711646767
0.166788789155523,0.807079477149127,0.9589275972254696,0.5388193941900135,0.0544913151364764,0.9413309098253054,0.8113322325540974,0.8586238608811972,0.8370617001352617,0.6264947531115269,0.3861135219579934,0.2578959225050687
0.1759479758197472,0.8304551092453011,0.9701504169589276,0.5209345601157862,0.0523076923076922,0.9609209330505908,0.8100286781958808,0.8615500376222724,0.8392987202164188,0.6301960465305458,0.38955042527339,0.2640234287001577
0.1843744275508334,0.8349394141780365,0.9667212220403708,0.51369792205107,0.0590570719602977,0.9611228920529132,0.8135917267750065,0.8682384416018728,0.8440849027156383,0.6352395672333848,0.3946537059538275,0.2715025906735751
0.1792452830188679,0.823108482015075,0.961421557166238,0.523105551535201,0.059652605459057,0.951428859941432,0.805683497001825,0.8598779366273722,0.83992300489023,0.6318229886927519,0.3920499913209513,0.2691597206578058
0.1755816083531782,0.8147123366091023,0.9576806172550854,0.5296185257934456,0.0601488833746898,0.9445622538624658,0.7906491700703919,0.8455814731209765,0.8325876599729477,0.6266574473277475,0.3887172365908697,0.2652399189006533
0.1844660194174757,0.8279744299208092,0.960953939677344,0.5174196216272098,0.0628287841191066,0.9536504089669796,0.7827409402972103,0.8398963297383162,0.8294662366038914,0.6254372407060929,0.3892726957125499,0.2668168506420365
0.2031507602124931,0.8535445091117262,0.9660197958070298,0.4931251938385195,0.0697766749379652,0.9705139856609108,0.7879551577300772,0.8446618175737814,0.8336281344292998,0.6307248027332628,0.3960770699531332,0.2772246001351656
0.2168895402088294,0.8667111916801833,0.9650845608292415,0.4782383955339605,0.0777171215880893,0.9768756942340704,0.7914313026853219,0.8533567427472619,0.8391946727707835,0.637151224273977,0.4038187814615518,0.2874971840504618
0.2211943579410148,0.8561205991794677,0.9527706336216974,0.481443192391192,0.087940446650124,0.9632434615772998,0.7834361692882592,0.8503469609564418,0.8362813442929976,0.6369071829496461,0.4065960770699531,0.2915972065780581
0.2183550100751053,0.8461978818814999,0.9470033512586704,0.4884730693683448,0.0901240694789081,0.9543572654751084,0.7664030590075606,0.8312014045648357,0.8233794610342317,0.6301553729764907,0.4060406179482729,0.2922279792746114
0.22467484887342,0.8496326686384887,0.944353518821604,0.4829939005479168,0.0951861042183622,0.9543572654751084,0.7577996002433302,0.81774099155589,0.8133909062532515,0.625193199381762,0.4074292657524735,0.2961477810317639
0.2379556695365451,0.852972044652228,0.9359364040215102,0.4736896516075674,0.1077915632754342,0.9507220034333028,0.7664899626314418,0.8173229663071649,0.8100613879929248,0.6267387944358578,0.4132963027252214,0.3062401441766164
0.2411613848690236,0.8388512546512737,0.921596134362092,0.4795823426031221,0.1186104218362282,0.9339594062405332,0.7786564699747979,0.8158180754117549,0.8069399646238685,0.6275522655169609,0.4166637736504079,0.3142149132687542
0.2355742810038468,0.8319816811372962,0.9207388356324526,0.4864054584927116,0.1161290322580645,0.9298192466929212,0.7704006257060919,0.800183931109439,0.7933617729684737,0.6188887985032132,0.4135393160909565,0.3112863257490426
0.2262319106063381,0.8160480870145979,0.9156729795027666,0.5003618319032358,0.1143424317617865,0.9180046450570534,0.760754323455288,0.7773597525290528,0.7749973988138592,0.6076222240299358,0.4077069953133136,0.3030862806938499
0.2162483971423337,0.8090831027573705,0.9184786844361312,0.5097694613873669,0.1070967741935483,0.9161870140361504,0.7604067089597636,0.764066549619597,0.7646446779731558,0.6027820710973725,0.4055198750216977,0.298715927010588
0.2225682359406484,0.8084152275546227,0.9125555295768062,0.5065646645301355,0.1143424317617865,0.9119458749873774,0.7744850960285043,0.7648189950673021,0.7629278951201749,0.6010331082730009,0.4075681305328936,0.301284072989412
0.2277889723392562,0.8035492796488886,0.9041384147767126,0.5062545228987905,0.1224813895781637,0.9039684943956376,0.7858694707569305,0.765571440515007,0.7604827801477474,0.6000976165297324,0.4095816698489846,0.3057895922505068
0.2164315808756182,0.780650701268963,0.895097809991427,0.5250697818670526,0.1220843672456575,0.8859941431889327,0.7839575910315459,0.7530306830532564,0.7494537509104152,0.5924916619214187,0.4048255511195973,0.3023653976120748
0.1975636563473163,0.7644308749165156,0.8979814511729406,0.5445053240980047,0.1100744416873449,0.8792285166111279,0.7745719996523854,0.7302901095226152,0.7321818749349704,0.5819978849751891,0.3989585141468496,0.2946159044829916
0.1934420223484154,0.7652895716057629,0.9021120723248384,0.5463661738860747,0.1052109181141439,0.882358881147127,0.7722256018075954,0.7212607641501546,0.724482363957965,0.5760595460831367,0.3959382051727131,0.2906510475332282
0.200860963546437,0.7713004484304934,0.9007871561063048,0.5389227747337951,0.1100744416873449,0.8847823891749973,0.7859563743808117,0.7278655630800099,0.726043075642493,0.5759781989750264,0.3970491234160736,0.2918675377337238
0.2026012090126396,0.7650033393760138,0.8941625750136388,0.5414039077845549,0.1151364764267989,0.8771079470867413,0.7986443034674546,0.7345539670596103,0.7278118822182916,0.5778085089075083,0.3989585141468496,0.2946159044829916
0.1936252060816999,0.742772636198836,0.8835632452653729,0.5584616975085289,0.11712158808933,0.8585277188730687,0.8002085686973146,0.72753114288103,0.7212048694204558,0.5734971121776621,0.3949661517097727,0.2907411579184501
0.180802344751786,0.7195878255891615,0.8754578754578755,0.578207381370826,0.115334987593052,0.8409572856710088,0.79516815851221,0.7122314187776941,0.7101758401831235,0.5645896038395836,0.3880923450789794,0.2833521063302546
0.1786041399523722,0.7168209140349203,0.8751461304652793,0.5809986560529309,0.1143424317617865,0.8392406341512674,0.7987312070913357,0.708803611738149,0.7061179898033504,0.5606849426502888,0.3846554417635827,0.2798828564992115
0.1849239787506869,0.730464650319626,0.8808354765801574,0.5700403184120749,0.1140446650124069,0.8502473997778451,0.812548883288433,0.7190034278070396,0.7120486942045574,0.5645896038395836,0.3868425620551988,0.28123451227754
0.1852903462172559,0.7335177941036161,0.8831735640246279,0.5681794686240049,0.1128535980148883,0.8533777643138443,0.8222820891631181,0.7272803277317949,0.717094995317865,0.5693890832180917,0.3903141815657004,0.2826762784410903
0.1755816083531782,0.7214960404541553,0.8815369028134985,0.5801716117026775,0.1085856079404466,0.8459052812279106,0.8164595463630833,0.7228492600953097,0.7132452398293622,0.5662978931099,0.3886478042006596,0.2801531876548772
0.1645905843561091,0.7111916801831887,0.8823942015431377,0.5919569936937868,0.1020347394540942,0.84105826517217,0.804293039019727,0.709974082434579,0.7055457288523568,0.5602375335556821,0.3843777122027426,0.2764136066681685
0.1594614398241436,0.7131953057914322,0.8884732288987608,0.5938178434818566,0.0954838709677419,0.8460062607290719,0.8046406535152516,0.7065462753950339,0.7041410883362814,0.5597087773529651,0.3835098073251172,0.2757828339716152
0.1689869939549367,0.7262665776166397,0.8910451250876783,0.5813087976842758,0.0989578163771711,0.8545895183277794,0.8148083775093421,0.7215951843491347,0.7131411923837271,0.5664199137720655,0.389446276688075,0.282090560937148
0.1730170360871954,0.7362847056578571,0.8957992362247682,0.573658637444433,0.0981637717121587,0.8629708169241643,0.8246284870079081,0.7322966307164953,0.7187077307252108,0.5707313105019116,0.3930914771741017,0.2853345348051363
0.1669719728888074,0.7247400057246446,0.8915127425765724,0.5832730280161273,0.0975682382133995,0.8540846208219731,0.8181107152168244,0.7271967226820499,0.7155863073561545,0.5693077361099813,0.3920847075160563,0.2823158369002027
0.1624839714233376,0.7114779124129378,0.884498480243161,0.5929907991316035,0.099652605459057,0.8425729576895888,0.8078560875988527,0.7156592258172394,0.7087191759442306,0.5640201740828114,0.3876063183475091,0.2775850416760532
0.1568968675581608,0.714149413223929,0.8914348063284233,0.5947482683758917,0.0922084367245657,0.8484297687569423,0.8083775093421396,0.7108937379817741,0.7047653730100926,0.5597901244610755,0.3834403749349071,0.2744311781932868
0.1650485436893203,0.7241675412651465,0.8926817862988075,0.5847203556290707,0.0957816377171215,0.8545895183277794,0.8216737637959503,0.7205083187024496,0.7096556029549475,0.5613763930692264,0.3841346988370075,0.2770443793647218
0.1714599743542773,0.7195878255891615,0.8834853090172238,0.5834797891036907,0.1051116625310173,0.8462082197313945,0.8334057530199009,0.72903603377644,0.7139215482259911,0.5647929716098593,0.3876757507377192,0.2806938499662086
0.166788789155523,0.7063257322774545,0.8766269191801107,0.5933009407629484,0.1069975186104218,0.8346965565990103,0.8269748848526984,0.7231836802942898,0.7095515555093123,0.5618644757178882,0.3863565353237285,0.2779004280243298
0.16339989008976,0.7066119645072035,0.8797443691060711,0.5951617905510184,0.1031265508684863,0.8368171261233969,0.8111584253063353,0.710977343031519,0.7018520445323068,0.5569836492312699,0.3821211595209165,0.2737102951115115
0.1666971972888807,0.7162484495754222,0.8848102252357571,0.5880285330300837,0.1017369727047146,0.8451984247197818,0.8108108108108107,0.709221636986874,0.7020081157007596,0.5576750996502075,0.383093212983857,0.2745663437711196
0.1785125480857299,0.7280793817383838,0.884498480243161,0.5750025845135945,0.1082878411910669,0.8512571947894577,0.8254975232467193,0.7248557812891898,0.7127250026011862,0.5664605873261206,0.3906266273216456,0.2825411128632575
0.1842828356841912,0.7321820436981205,0.8828618190320319,0.5695234156931666,0.1124565756823821,0.8524689488033929,0.8374902233423134,0.7388178245966056,0.7216210592029967,0.5733750915154966,0.3955216108314529,0.2891642261770669
0.1786041399523722,0.7210189867379067,0.8784973891356871,0.5787242840897343,0.1121588089330024,0.8436837322023628,0.8359259581124532,0.7354736226068054,0.7192799916762045,0.5718701700154559,0.3940635306370422,0.2885334534805136
0.1725590767539842,0.7140540024806793,0.8780297716467929,0.5859609221544505,0.1091811414392059,0.8396445521559123,0.825236812375076,0.72853440347797,0.7148579752367079,0.5684129179207679,0.3903836139559105,0.2838927686415859
0.1803443854185748,0.7226409693731515,0.8784973891356871,0.5768634343016644,0.1131513647642679,0.844491568211653,0.8203702094377334,0.7369785135022155,0.7178233274373115,0.5720735377857318,0.3925360180524214,0.2858751971164677
0.1938083898149844,0.7382883312661006,0.8798223053542202,0.5607360694717255,0.1196029776674937,0.853680702817328,0.8249761015034327,0.7530306830532564,0.7276558110498388,0.5801269014886521,0.3988543655615345,0.2935796350529399
0.1959150027477559,0.7503100849155615,0.8878497389135687,0.5530859092318825,0.1155334987593051,0.8652933454508734,0.8239332580168593,0.7518602123568263,0.7304650920819895,0.5817538436508582,0.4014580801944107,0.2961477810317639
0.1853819380838981,0.7446808510638298,0.8922141688099134,0.5620800165408869,0.1070967741935483,0.8650913864485509,0.8112453289302164,0.7395702700443106,0.7253147435230466,0.5792727568534938,0.4004513105363652,0.293444469475107
0.1807107528851438,0.7361892949146074,0.8891746551321018,0.5693166546056032,0.106501240694789,0.8586286983742301,0.7941253150256367,0.7225984449460747,0.7157944022474249,0.5725209468803384,0.3952091650755077,0.2882631223248479
0.1860230811503938,0.7433451006583341,0.8904995713506352,0.5624935387160136,0.10848635235732,0.8632737554276481,0.7882158686017207,0.7152412005685144,0.7126209551555509,0.5711380460424632,0.3953133136608228,0.2888488398287903
0.1992123099468767,0.7607098559297778,0.8935390850284467,0.5455391295358214,0.1137468982630272,0.8744824800565484,0.79516815851221,0.7220968146476047,0.7176152325460411,0.5763442609615228,0.4005554591216803,0.2961928362243748
0.1981132075471698,0.7583245873485356,0.8925259138025096,0.5475033598676728,0.1138461538461538,0.8725638695344844,0.8036847136525592,0.7246049661399548,0.7199563000728333,0.5782152444480598,0.4027772956084013,0.2994368100923631
0.1877633266165964,0.7371434023471043,0.8839529265061181,0.5648712912229918,0.1136476426799007,0.8557002928405534,0.7987312070913357,0.7174149318618843,0.7132972635521798,0.5734971121776621,0.3997222704391599,0.2960126154539311
0.1765891188862429,0.7265528098463887,0.8848102252357571,0.5768634343016644,0.1069975186104218,0.8507522972836514,0.7853480490136439,0.7008611320123735,0.7036208511081053,0.5660945253396241,0.3947231383440375,0.289029060599234
0.1773218538193808,0.7285564354546322,0.8859013327098434,0.5754161066887212,0.1066997518610421,0.8524689488033929,0.7837837837837838,0.6943399381322632,0.6994069295598794,0.5630440087854877,0.3921888561013713,0.2867312457760756
0.1847407950174024,0.7403873676175937,0.8891746551321018,0.5647679106792102,0.1086848635235731,0.8608502473997778,0.7976883636047623,0.7064626703452889,0.7045572781188223,0.5664605873261206,0.3955216108314529,0.289975219644064
0.1858398974171093,0.7374296345768534,0.8859013327098434,0.5658017161170268,0.11136476426799,0.857114005856811,0.8061180151212305,0.709472452136109,0.7062220372489856,0.5680061823802164,0.3960423537580281,0.2900653300292858
0.1763143432863161,0.7268390420761378,0.8852778427246513,0.5768634343016644,0.1066004962779156,0.8511562152882963,0.7997740505779091,0.7011119471616085,0.7006034751846842,0.5637354592044254,0.3921888561013713,0.2858751971164677
0.1693533614215057,0.7175841999809179,0.8837191177616709,0.5858575416106688,0.1038213399503721,0.8452994042209431,0.7883896758494829,0.690995736142463,0.6930600353761316,0.5580004880826487,0.3876757507377192,0.280333408425321
0.1683458508884411,0.7200648793054099,0.8865248226950354,0.5850304972604156,0.1015384615384615,0.8484297687569423,0.7911705918136785,0.690243290694758,0.6910831339090626,0.5563735459204425,0.3860788057628884,0.2790268078396035
0.1782377724858032,0.7266482205896384,0.8834853090172238,0.5759330094076295,0.1087841191066997,0.8499444612743612,0.8053358825063005,0.7013627623108435,0.698262407657892,0.561254372407061,0.3908002082971706,0.287271908087407
0.1802527935519325,0.7338040263333652,0.8876159301691217,0.5708673627623281,0.1071960297766749,0.8564071493486821,0.8138524376466498,0.7086364016386589,0.7038809697221934,0.5654844220287969,0.3935427877104669,0.2915521513854472
0.1678878915552298,0.7297013643736285,0.8948640012469798,0.5800682311588959,0.0959801488833746,0.8588306573765526,0.8094203528287129,0.7007775269626285,0.699979190510873,0.5626779467989913,0.3907307759069606,0.2861455282721333
0.1540575196922513,0.7175841999809179,0.8966565349544073,0.5944381267445467,0.0873449131513647,0.853680702817328,0.8002954723211958,0.6873171139536828,0.6922276558110498,0.5564142194744977,0.3850026037146329,0.2788916422617707
0.1540575196922513,0.7189199503864135,0.8977476424284935,0.5937144629380751,0.0865508684863523,0.8549934363324245,0.7993395324585035,0.6857286180085277,0.6895224222245344,0.5540144797852437,0.383093212983857,0.2767740482090561
0.1623007876900531,0.7296059536303788,0.8994622398877717,0.5832730280161273,0.0900248138957816,0.8618600424113904,0.8117667506735031,0.6952595936794583,0.6956612215170118,0.5578377938664281,0.3868425620551988,0.2809191259292634
0.1674299322220186,0.7345673122793628,0.8990725586470268,0.5776904786519177,0.0930024813895781,0.8641825709380995,0.8182845224645867,0.7003595017139035,0.6988346686088857,0.559139347596193,0.3878146155181393,0.2825411128632575
0.1628503388899065,0.7297013643736285,0.8989946223988777,0.5829628863847824,0.0906203473945409,0.8615571039079066,0.8097679673242374,0.690577710893738,0.6919675371969618,0.5526315789473685,0.3825377538621767,0.2774048209056093
0.1533247847591133,0.7152943421429253,0.895409554984023,0.5960922154450532,0.0877419354838709,0.8516611127941028,0.7985573998435734,0.6791238190786724,0.682083029861617,0.5465305458390954,0.3772956084013192,0.2717278666366299
0.1510349880930573,0.7081385363991985,0.8915127425765724,0.6012612426341363,0.0889330024813895,0.8452994042209431,0.8023811592943426,0.6827188362177076,0.6832275517636043,0.547221996258033,0.3783370942544697,0.2719981977922955
0.1632167063564755,0.7146264669401775,0.8864468864468864,0.5909231882559701,0.0987593052109181,0.8454003837221044,0.81698096810637,0.6940891229830283,0.6917594423056914,0.551452045879769,0.3814268356188162,0.2756927235863933
0.1638578494229712,0.7174887892376682,0.8882394201543138,0.5889589579241186,0.0979652605459056,0.8481268302534586,0.8204571130616146,0.6978513502215534,0.6933201539902196,0.552265516960872,0.3817045651796563,0.2756026132011714
0.1492031507602124,0.7047991603854594,0.8902657626061881,0.6040525173162411,0.0887344913151364,0.8427749166919114,0.8097679673242374,0.688822004849093,0.6866611174695662,0.5469372813796469,0.3776427703523694,0.2704663212435233
0.140318739695915,0.6956397290334893,0.8904995713506352,0.6140804300630621,0.0837717121588089,0.838028880137332,0.7936907969062309,0.6742747261934621,0.6778691083133909,0.5403888391767673,0.3720881791355668,0.2634377111962153
0.154332295292178,0.7118595553859365,0.8917465513210194,0.5973327819704332,0.0906203473945409,0.8474199737453297,0.7901277483271052,0.6756960120391271,0.6777130371449381,0.5413243309200357,0.372539489671932,0.2653300292858752
0.1628503388899065,0.7276023280221353,0.8973579611877484,0.583996691822599,0.0916129032258064,0.8593355548823589,0.8010776049361258,0.6883203745506228,0.6851004057850381,0.5467339136093712,0.376774865474744,0.2705113764361342
0.1670635647554497,0.7306554718061254,0.8962668537136622,0.5800682311588959,0.0945905707196029,0.8603453498939715,0.8041192317719649,0.6923334169383831,0.6882738528769119,0.5492150004067355,0.37896198576636,0.2741157918450101
0.1572632350247297,0.7185383074134147,0.894708128750682,0.5920603742375685,0.0903225806451612,0.852872866808038,0.79516815851221,0.6828024412674525,0.6838518364374155,0.5462865045147645,0.3775039055719493,0.2735751295336788
0.1481956402271478,0.703081767006965,0.889798145117294,0.605603225472966,0.0885359801488833,0.8415631626779763,0.7899539410793429,0.6756124069893822,0.680106128394548,0.5435613763930692,0.3761499739628537,0.2721333633701284
0.1551566220919582,0.7055624463314569,0.8859013327098434,0.6003308177401013,0.094789081885856,0.84025042916288,0.7948205440166854,0.6820499958197475,0.6834876703776923,0.545106971447165,0.3774344731817393,0.2731696328001802
0.171734749954204,0.724930827211144,0.8876159301691217,0.5804817533340225,0.1026302729528536,0.8516611127941028,0.8086382202137828,0.6954268037789482,0.693008011653314,0.5521434962987066,0.3823988890817567,0.278576255913494
0.1795200586187946,0.737238813090354,0.8910451250876783,0.5694200351493848,0.1046153846153846,0.8604463293951327,0.8095941600764751,0.7027004431067636,0.6970138383102695,0.556251525258277,0.3862871029335185,0.2837576030637531
0.171734749954204,0.7352351874821105,0.8961109812173643,0.5748992039698129,0.0972704714640198,0.8626678784206806,0.8006430868167201,0.6925842320876181,0.6914993236916034,0.5524688847311477,0.3829890643985419,0.279477359765713
0.166788789155523,0.7307508825493751,0.8965785987062583,0.5801716117026775,0.0941935483870967,0.860547308896294,0.7930824715390631,0.6831368614664326,0.6845281448340444,0.5470999755958675,0.3780593646936296,0.2745212885785087
0.1718263418208463,0.7365709378876062,0.8971241524433013,0.5740721596195595,0.0965756823821339,0.8639806119357769,0.7955157730077344,0.6856450129587828,0.6863489751326605,0.5479134466769706,0.3785801076202048,0.2755575580085604
0.1819014471514929,0.7488789237668162,0.8984490686618346,0.561769874909542,0.1012406947890818,0.8713521155205493,0.8075084731033284,0.6975169300225734,0.6943086047237541,0.5541771740014643,0.3837528206908523,0.2817301193962604
0.1808939366184282,0.7493559774830647,0.8998519211285169,0.5620800165408869,0.0998511166253101,0.8725638695344844,0.8153297992526288,0.7058774349970738,0.6984184788263449,0.5573090376637111,0.3870161430307238,0.2847938724938049
0.1722843011540575,0.7362847056578571,0.8964227262099602,0.5739687790757779,0.0973697270471463,0.8633747349288095,0.8096810637003562,0.6987710057687484,0.6924357507023203,0.5525502318392581,0.3827113348377018,0.2792520838026582
0.1682542590217988,0.7237858982921478,0.8896422726209959,0.583066266928564,0.0994540942928039,0.8523679693022317,0.800469279568958,0.6896580553465429,0.6864530225782958,0.5477100789066949,0.3788231209859399,0.2736652399189006
0.1740245466202601,0.7315141684953725,0.8910451250876783,0.5756228677762846,0.101637717121588,0.8574169443602948,0.7988181107152167,0.690243290694758,0.6881698054312767,0.5493776946229562,0.3792744315223052,0.2744762333858977
0.1851987543506136,0.7479248163343194,0.894941937495129,0.5604259278403805,0.1053101736972704,0.8686256689891952,0.8041192317719649,0.7021152077585486,0.6956612215170118,0.5553567070690637,0.3846207255684777,0.2811444018923181
0.1877633266165964,0.7512641923480585,0.8954874912321721,0.5572211309831488,0.1063027295285359,0.8706452590124204,0.8069001477361606,0.707131510743249,0.6997710956196026,0.5588139591637517,0.387328588786669,0.2839378238341969
0.1752152408866092,0.7406735998473428,0.8975138336840465,0.5700403184120749,0.0982630272952853,0.8664041199636473,0.7965586164943077,0.6951759886297132,0.6930600353761316,0.5539331326771334,0.3822947404964416,0.276909213786889
0.1699029126213592,0.7486881022803168,0.9085807809212064,0.5686963713429132,0.0883374689826302,0.8778148035948702,0.7781350482315113,0.6803778948248475,0.6841639787743212,0.5483201822175222,0.3785453914250998,0.2699256589321919
0.1778714050192343,0.7596603377540312,0.9108409321175278,0.5582549364209656,0.0911166253101736,0.8850853276784812,0.77570174676284,0.6822172059192375,0.6866611174695662,0.5510859838932726,0.3808366603020309,0.2740707366523991
0.1900531232826525,0.7601373914702796,0.9007092198581561,0.5510182983562494,0.1042183622828784,0.8788245986064829,0.7911705918136785,0.6986874007190035,0.6971699094787223,0.5587326120556415,0.387328588786669,0.2821806713223699
0.1851071624839713,0.754221925388799,0.900163666121113,0.5571177504393673,0.1018362282878411,0.8752903160658386,0.8006430868167201,0.7051249895493688,0.7009156175215899,0.5615797608395021,0.3902794653705954,0.2854246451903582
0.1732918116871221,0.7367617593741056,0.8959551087210661,0.5731417347255247,0.0981637717121587,0.8633747349288095,0.7927348570435387,0.6936710977343031,0.6936843200499428,0.5550719921906776,0.3837875368859573,0.2779905384095517
0.1669719728888074,0.7293197214006297,0.8952536824877251,0.5807918949653675,0.0951861042183622,0.8589316368777138,0.7836968801599027,0.6808795251233174,0.685620643013214,0.5492963475148458,0.3780940808887346,0.2713674250957423
0.1732918116871221,0.7345673122793628,0.8941625750136388,0.5743823012509045,0.0993548387096774,0.8610522064021003,0.7858694707569305,0.6828860463171976,0.6853085006763084,0.5487269177580737,0.3777469189376845,0.2723586393331831
0.1809855284850705,0.740005724644595,0.8920582963136156,0.5671456631861883,0.1048138957816377,0.8625668989195192,0.8006430868167201,0.6967644845748683,0.6929039642076787,0.5542991946636296,0.3839611178614824,0.2798378013066006
0.175490016486536,0.7380975097796012,0.895175746239576,0.5712808849374548,0.0998511166253101,0.863576693931132,0.812548883288433,0.7025332330072735,0.6966496722505463,0.5573497112177662,0.387398021176879,0.2828564992115341
0.1621176039567686,0.7201602900486596,0.8919024238173173,0.5884420552052103,0.0946898263027295,0.8519640512975866,0.8095941600764751,0.6954268037789482,0.6935802726043075,0.5538111120149678,0.3833015101544871,0.2782608695652174
0.1556145814251694,0.7120503768724359,0.8907333800950822,0.5966091181639616,0.0919106699751861,0.8469150762395233,0.802033544798818,0.6868154836552128,0.6885339714909999,0.5496217359472871,0.3786842562055199,0.2736201847262897
0.1591866642242168,0.7163438603186719,0.8912789338321253,0.5921637547813502,0.0934987593052109,0.8495405432697163,0.8066394368645173,0.691915391689658,0.6896784933929873,0.5512080045554381,0.3802464849852456,0.2742960126154539
0.1651401355559626,0.7278885602518844,0.8956433637284701,0.5826527447534374,0.0938957816377171,0.8584267393719075,0.8213261493004258,0.7032020734052336,0.6973259806471752,0.555966810379891,0.3846901579586878,0.2788015318765487
0.1702692800879282,0.7299875966033776,0.8929935312914036,0.578517523002171,0.0984615384615384,0.8578208623649398,0.8230642217780482,0.7056266198478388,0.6986785974404329,0.5556820955015049,0.3848984551293178,0.2790268078396035
0.1574464187580143,0.7127182520751837,0.889798145117294,0.5951617905510184,0.0934987593052109,0.8466121377360395,0.8108108108108107,0.693085862386088,0.6888981375507232,0.5486862442040186,0.37889255337615,0.2715025906735751
0.1433412712951089,0.7051808033584582,0.8957212999766191,0.607153933629691,0.0820843672456575,0.8465111582348783,0.8023811592943426,0.6817155756207675,0.681406721464988,0.543235987960628,0.3740670022565527,0.2651948637080423
0.1518593148928375,0.7152943421429253,0.8966565349544073,0.5969192597953066,0.0860545905707196,0.8524689488033929,0.8052489788824194,0.6836384917649027,0.6830714805951514,0.5439274383795656,0.3751779204999133,0.265465194863708
0.1641326250228979,0.7293197214006297,0.8975917699321954,0.5823426031220924,0.0922084367245657,0.8604463293951327,0.8182845224645867,0.6964300643758883,0.6895224222245344,0.5494997152851215,0.3790314181565701,0.2703311556656905
0.166422421688954,0.7336132048468658,0.8992284311433247,0.578827664633516,0.0923076923076922,0.8637786529334543,0.8199356913183279,0.7001922916144134,0.6911871813546978,0.5518587814203205,0.3804200659607707,0.2733047983780131
0.1525004579593331,0.7182520751836657,0.8986049411581326,0.594955029463455,0.0852605459057071,0.8552963748359083,0.808029894846615,0.6866482735557228,0.6820310061387993,0.545351012771496,0.3747613261586531,0.2662311331380941
0.1421505770287598,0.707375250453201,0.8984490686618346,0.6067404114545643,0.0797022332506203,0.8493385842673937,0.8022073520465803,0.6751943817406572,0.6752679221725107,0.539005938338892,0.3700746398194758,0.2597882405947285
0.1515845392929107,0.7133861272779316,0.895331618735874,0.5980564457769048,0.086848635235732,0.8505503382813289,0.8081167984704962,0.6763648524370872,0.6777130371449381,0.5398600829740503,0.3715674362089916,0.2626267177292183
0.16339989008976,0.7223547371434024,0.8926817862988075,0.5865812054171404,0.0948883374689826,0.8535797233161668,0.8199356913183279,0.6879859543516429,0.6857246904588492,0.5468559342715367,0.3776080541572644,0.271592701058797
0.1621176039567686,0.7220685049136534,0.8934611487802977,0.5874082497673938,0.093697270471464,0.8539836413208117,0.8249761015034327,0.6929186522865982,0.6878576630943711,0.5490116326364598,0.3795868772782503,0.2751520612750619
0.1570800512914453,0.715103520656426,0.8920582963136156,0.59402460456942,0.0919106699751861,0.8493385842673937,0.8129834014078386,0.6827188362177076,0.6811466028509,0.5445375416903929,0.3759069605971186,0.2706465420139671
0.1534163766257556,0.7160576280889228,0.8959551087210661,0.5956786932699266,0.0874441687344912,0.8523679693022317,0.7986443034674546,0.673689490845247,0.6766205389657685,0.5418530871227528,0.374518312792918,0.2689344446947511
0.1625755632899798,0.7354260089686099,0.9039825422804146,0.5799648506151143,0.0872456575682381,0.867817832979905,0.8013383158077692,0.6793746342279073,0.6817188638018937,0.5460017896363785,0.3771914598160042,0.2726289704888488
0.177779813152592,0.7537448716725504,0.9060088847322888,0.5614597332781971,0.0941935483870967,0.8788245986064829,0.812548883288433,0.6950923835799682,0.6913432525231507,0.5535670706906369,0.3826766186425968,0.2798828564992115
0.1775050375526653,0.7571796584295393,0.9090483984101004,0.5597022640339088,0.0921091811414391,0.882661819650611,0.8144607630138176,0.6982693754702783,0.6931640828217668,0.5542178475555194,0.3839611178614824,0.2816850642036494
0.1666056054222384,0.7390516172120981,0.9035149247915204,0.5757262483200661,0.0897270471464019,0.8694335049984853,0.8063787259928739,0.6894072401973079,0.6875455207574654,0.5496624095013423,0.3800034716195106,0.2762784410903356
0.1655065030225316,0.7312279362656235,0.8980593874210896,0.5805851338778042,0.0926054590570719,0.8617590629102292,0.7918658208047276,0.6782877685812222,0.6787014878784726,0.5436427235011795,0.3757680958166985,0.2710970939400766
0.1797948342187213,0.7424864039690869,0.895097809991427,0.5664219993797167,0.1022332506203473,0.8657982429566797,0.7897801338315806,0.6767828776858122,0.676412444074498,0.5436020499471244,0.3761846901579587,0.272448749718405
0.1880381022165231,0.7568934261997903,0.8998519211285169,0.5540163341259174,0.103622828784119,0.8765020700797738,0.7994264360823845,0.6859794331577627,0.6836957652689627,0.54909297974457,0.3818781461551814,0.2798378013066006
0.1845576112841179,0.7587062303215344,0.9042942872730106,0.5549467590199524,0.0989578163771711,0.8803392911239019,0.7956895802554966,0.6841401220633726,0.6857767141816669,0.5513300252176035,0.3838916854712724,0.2827213336337013
0.1728338523539109,0.744012975861082,0.9022679448211364,0.5695234156931666,0.0938957816377171,0.8712511360193881,0.7849135308942383,0.6732714655965221,0.6802621995630008,0.5468966078255918,0.3805589307411908,0.2776751520612751
0.1699029126213592,0.7381929205228509,0.8999298573766659,0.5742789207071228,0.0937965260545905,0.8667070584671311,0.7770922047449379,0.6631552545773765,0.6742794714389762,0.5407549011632636,0.3754903662558583,0.2725839152962379
0.1760395676863894,0.7522182997805554,0.906242693476736,0.5633205830662669,0.0931017369727046,0.878117742098354,0.7783088554792734,0.6637404899255915,0.6750078035584227,0.5409989424875946,0.3756639472313835,0.2735751295336788
0.1837332844843378,0.767388607957256,0.9120099758397632,0.5507081567249044,0.0935980148883374,0.8899323437342219,0.7860432780046928,0.6780369534319872,0.683123504317969,0.5470999755958675,0.3808366603020309,0.2783059247578283
0.1826341820846309,0.7638584104570176,0.9101395058841868,0.5532926703194458,0.0941935483870967,0.8868019791982227,0.7863908925002172,0.6833876766156676,0.6860888565185725,0.5489709590824047,0.3819822947404965,0.2804235188105429
0.177413445686023,0.7522182997805554,0.9050736497545008,0.5624935387160136,0.0945905707196029,0.8774108855902252,0.7738767706613365,0.672686230248307,0.6807304130683592,0.5446595623525584,0.3783023780593647,0.274250957422843
0.1764975270196006,0.7465890659288237,0.9012547735951992,0.5661118577483718,0.0964764267990074,0.8719579925275169,0.7657078300165117,0.6658306161692166,0.6756841119550516,0.5425038639876353,0.3756292310362784,0.2710520387474656
0.1792452830188679,0.752027478294056,0.9033590522952224,0.5615631138219787,0.0966749379652605,0.87619913157629,0.7763969757538889,0.671933784800602,0.6797419623348248,0.5451476450012201,0.3782329456691547,0.2738004054967335
0.1874885510166697,0.7614731418757753,0.9040604785285636,0.5518453427065025,0.1006451612903225,0.8816520246389982,0.7894325193360563,0.6843909372126076,0.6867131411923837,0.5495403888391768,0.3813574032286062,0.2779905384095517
0.1847407950174024,0.7546035683617975,0.9007871561063048,0.5570143698955856,0.1013399503722084,0.8758961930728061,0.7922134353002519,0.6882367695008779,0.6882218291540944,0.5499877979337834,0.3820864433258115,0.279522414958324
0.1688038102216523,0.7338040263333652,0.8973579611877484,0.5773803370205728,0.094789081885856,0.8626678784206806,0.7841313982793082,0.6765320625365772,0.6829154094266986,0.5453103392174409,0.3784412428397848,0.2747916197341744
0.163033522623191,0.7250262379543937,0.8950198737432781,0.5853406388917606,0.0932009925558312,0.8565081288498434,0.7769183974971756,0.6673355070646267,0.6785974404328374,0.5407955747173188,0.3749001909390731,0.2699256589321919
0.1744825059534713,0.7398149031580956,0.8974358974358975,0.5708673627623281,0.0978660049627791,0.865899222457841,0.7818719040583992,0.673438675696012,0.6818229112475289,0.5439681119336208,0.3775039055719493,0.2729894120297364
0.1866642242168895,0.7587062303215344,0.9025017535655834,0.5537061924945725,0.1012406947890818,0.8791275371099667,0.7937777005301121,0.6880695594013878,0.6900946831755281,0.5519401285284308,0.383127929178962,0.2796125253435458
0.1816266715515662,0.7577521228890374,0.9060088847322888,0.5571177504393673,0.0962779156327543,0.8809451681308693,0.798991917962979,0.6925842320876181,0.693008011653314,0.554624583096071,0.3846207255684777,0.2806037395809867
0.1680710752885143,0.7422001717393378,0.9048398410100538,0.5732451152693063,0.0896277915632754,0.8719579925275169,0.7959502911271399,0.6843073321628627,0.6891582561648112,0.550109818595949,0.3800729040097205,0.2754674476233386
0.1617512364901996,0.7359030626848583,0.9051515860026498,0.5801716117026775,0.0860545905707196,0.8688276279915177,0.7941253150256367,0.6792074241284173,0.6862449276870254,0.546977954933702,0.3776080541572644,0.2719981977922955
0.1693533614215057,0.7417231180230894,0.9033590522952224,0.5727282125503981,0.0913151364764267,0.8707462385135818,0.8051620752585382,0.6873171139536828,0.6901987306211633,0.5494997152851215,0.3800729040097205,0.2746564541563415
0.1764059351529583,0.7463028336990747,0.90117683734705,0.566318618835935,0.0964764267990074,0.8717560335251944,0.8164595463630833,0.6963464593261433,0.694724794506295,0.55303831448792,0.3839958340565874,0.2797476909213787
0.1689869939549367,0.7316095792386222,0.895409554984023,0.5784141424583893,0.0961786600496277,0.8602443703928103,0.8205440166854957,0.6970989047738484,0.69352824888149,0.5513300252176035,0.3818781461551814,0.2784410903356611
0.1520424986261219,0.7054670355882072,0.8885511651469099,0.6020882869843895,0.0914143920595533,0.8419670806826214,0.8168071608586077,0.6874007190034278,0.6865050463011134,0.5450256243390548,0.3754903662558583,0.2713223699031313
0.1432496794284667,0.6887701555195115,0.8822383290468396,0.6161480409386954,0.0906203473945409,0.8290417045339796,0.8110715216824541,0.6790402140289273,0.6791176776610135,0.5392906532172781,0.370421801770526,0.2655553052489299
0.1476460890272943,0.6961167827497377,0.88457641649131,0.6097384472242324,0.0915136476426798,0.8343936180955265,0.8151559920048665,0.6813811554217875,0.6795858911663719,0.5395753680956642,0.3716021524040965,0.2665014642937598
0.1564389082249496,0.7152943421429253,0.8927597225469566,0.594334746200765,0.0911166253101736,0.8498434817732,0.8237594507690971,0.6890728199983279,0.6839038601602332,0.5440494590417311,0.3762194063530637,0.2716377562514079
0.1521340904927642,0.7150081099131763,0.8961889174655132,0.5969192597953066,0.0865508684863523,0.8519640512975866,0.8254975232467193,0.691664576540423,0.6860888565185725,0.5451883185552754,0.3765318521090088,0.2725839152962379
0.1437992306283202,0.7039404636962122,0.8943184475099367,0.6076708363485992,0.0831761786600496,0.844895486216298,0.8156774137481533,0.6811303402725525,0.6817188638018937,0.5414463515822013,0.3724353410866169,0.2664564091011489
0.139952372229346,0.7012689628852209,0.895331618735874,0.6112891553809573,0.0804962779156327,0.8441886297081691,0.807160858607804,0.672686230248307,0.6772448236395797,0.5381111201496787,0.3699010588439507,0.2639333183149358
0.1529584172925444,0.7148172884266769,0.895331618735874,0.5965057376201798,0.0875434243176178,0.8513581742906189,0.808725123837664,0.6791238190786724,0.6822391010300698,0.5430326201903523,0.3743447318173928,0.2692498310430277
0.1654149111558893,0.7350443659956112,0.9012547735951992,0.5786209035459526,0.0905210918114143,0.8657982429566797,0.8104631963152863,0.6880695594013878,0.6869732598064718,0.5480761408931912,0.3786148238153099,0.2751971164676729
0.1642242168895402,0.7384791527526,0.9050736497545008,0.5773803370205728,0.0874441687344912,0.8701403615066141,0.804988268010776,0.6881531644511327,0.6863489751326605,0.5489709590824047,0.3793438639125152,0.2758729443568371
0.154698662758747,0.7256941131571416,0.9027355623100304,0.5896826217305903,0.0837717121588089,0.8618600424113904,0.7896063265838186,0.6732714655965221,0.6765164915201332,0.5421378020011389,0.3741364346467627,0.2701058797026358
0.151676131159553,0.7228317908596508,0.9029693710544774,0.5928874185878218,0.081985111662531,0.860547308896294,0.7818719040583992,0.6667502717164117,0.671418166684008,0.5380297730415684,0.3711855580628364,0.2667717954494255
0.1654149111558893,0.7401011353878447,0.9053853947470968,0.5758296288638478,0.0878411910669975,0.8711501565182267,0.788563483097245,0.673355070646267,0.6775049422536676,0.5416497193524771,0.3749001909390731,0.2712773147105204
0.1786957318190144,0.7595649270107814,0.9099836333878886,0.5577380337020573,0.0922084367245657,0.8844794506715136,0.797427652733119,0.6830532564166876,0.6859327853501197,0.5475880582445294,0.3803853497656657,0.278576255913494
0.1756732002198204,0.7597557484972808,0.912711402073104,0.5593921224025638,0.088833746898263,0.8863980611935776,0.7973407491092378,0.6822172059192375,0.6865050463011134,0.5481574880013015,0.3799687554244055,0.2799279116918224
0.1650485436893203,0.7486881022803168,0.912711402073104,0.5713842654812363,0.083076923076923,0.880440270625063,0.7859563743808117,0.6705124989549368,0.6786494641556551,0.5426665582038558,0.3759069605971186,0.2737553503041225
0.1661476460890273,0.7435359221448335,0.9075676096952692,0.5735552569006512,0.086848635235732,0.8744824800565484,0.7800469279568958,0.6659978262687066,0.6745916137758818,0.5412429838119255,0.374726609963548,0.2709619283622437
0.178146180619161,0.7516458353210572,0.9039825422804146,0.5623901581722319,0.095682382133995,0.8764010905786125,0.7881289649778395,0.6782877685812222,0.6815107689106233,0.5474253640283088,0.3798646068390904,0.2774949312908312
0.1878549184832386,0.7658620360652609,0.9073338009508222,0.5491574485681794,0.0987593052109181,0.8860951226900938,0.7989050143390979,0.691497366440933,0.6892102798876288,0.5531603351500854,0.3844471445929526,0.2836224374859202
0.1851071624839713,0.7664345005247591,0.9102174421323356,0.5505013956373411,0.0954838709677419,0.8883166717156417,0.8037716172764404,0.690494105843993,0.6895224222245344,0.5534857235825267,0.3846901579586878,0.2832619959450326
0.1735665872870489,0.7474477626180709,0.9044501597693088,0.56724904372997,0.0929032258064516,0.8744824800565484,0.8030763882853914,0.6807123150238275,0.6832795754864218,0.5485642235418531,0.3801423363999306,0.277720207253886
0.1675215240886609,0.7363801164011068,0.9005533473618579,0.5766566732141011,0.0921091811414391,0.8661011814601635,0.8058573042495872,0.6755288019396373,0.6789095827697431,0.545106971447165,0.3774691893768443,0.2738905158819554
0.1699029126213592,0.752313710523805,0.9115423583508688,0.5667321410110616,0.0863523573200992,0.8816520246389982,0.8162857391153211,0.6852269877100576,0.6857246904588492,0.5499064508256731,0.3811838222530811,0.2754223924307277
0.16871221835501,0.7800782368094649,0.9352349777881692,0.5523622454254109,0.0706699751861042,0.9116429364838936,0.8369688015990266,0.7124822339269291,0.707886796379149,0.5654030749206865,0.3898281548342301,0.2810092363144852
0.1604689503572083,0.7993512069459022,0.9579923622476816,0.546572934973638,0.0517121588089329,0.936584873270726,0.8383592595811244,0.7272803277317949,0.7254187909686818,0.5818758643130236,0.4016316611699358,0.2886686190583465
0.1616596446235574,0.803740101135388,0.9605642584365988,0.5434715186601882,0.0507196029776674,0.9406240533171766,0.8018597375510558,0.7086364016386589,0.7216210592029967,0.592044252826812,0.4187467453567089,0.3039873845460689
0.1862978567503205,0.8189104093120887,0.9519912711402072,0.5213480822909129,0.0694789081885856,0.943148540846208,0.7474580690014773,0.6732714655965221,0.7097596504005828,0.6052631578947368,0.4490539836833883,0.3366974543816175
0.2401538743359589,0.8610819578284515,0.9406125789104512,0.4681071022433578,0.1059057071960297,0.9580935070180752,0.701399148344486,0.6670846919153918,0.7273436687129331,0.6478890425445375,0.5014754382919633,0.393016445145303
0.3167246748488734,0.8924720923575995,0.90117683734705,0.4079396257624315,0.1726054590570719,0.9491063314147228,0.6686364821413052,0.7317950004180254,0.8094371033191136,0.7418449524119417,0.5861829543482036,0.4750619508898401
0.4120718080234474,0.942467321820437,0.8608058608058607,0.3269926599813914,0.249925558312655,0.9494092699182066,0.5927696184930911,0.7699189031017473,0.8776402039329935,0.8416985276173432,0.7011977087311232,0.5951790943906285
0.526103681993039,0.9860700314855454,0.7993920972644377,0.2390158172231986,0.3508684863523573,0.9326466727254368,0.4811853654297384,0.7664074910124572,0.897721360940589,0.920686569592451,0.8333275473008158,0.7377337238116694
0.6688038102216523,0.9911268008777788,0.6820980438001714,0.1556910989351803,0.5028287841191066,0.8594365343835201,0.3519596767185191,0.7167460914639244,0.867963791488919,0.965224111282844,0.9498350980732514,0.8748817301193963
0.815808756182451,0.990458925675031,0.5564648117839608,0.0730900444536337,0.6625310173697271,0.777643138442896,0.2290779525506213,0.618008527715074,0.775933825824576,0.936874644106402,1.0,0.9687767515206128
0.8890822494962447,1.0,0.5018315018315018,0.0265687997518867,0.73697270471464,0.7472483085933556,0.1472147388546101,0.4635063957863055,0.6167412340027053,0.8014317091027413,0.9182780767227914,0.9457986032890292
0.8664590584356109,0.921572369048755,0.4570960953939677,0.0818773906750748,0.7532506203473945,0.676764616782793,0.139567219953072,0.3389348716662486,0.4520341275621684,0.6136419100300984,0.7386911994445409,0.8111736877675152
0.7516028576662391,0.6270394046369622,0.3142389525368249,0.3063165512250594,0.7819354838709677,0.4284560234272442,0.305379334318241,0.3305743666917481,0.3391426490479659,0.4156837224436671,0.4986287102933519,0.5864383870241046
0.589668437442755,0.3512069459021086,0.226716545865482,0.5470898376925463,0.7499751861042183,0.2256891850954256,0.5023029460328495,0.3052420366190118,0.2328061596087816,0.2301309688440576,0.2649192848463808,0.3474656454156342
0.4423887158820296,0.2328976242724931,0.2553970851843192,0.6943037320376305,0.6519106699751861,0.1816621225891143,0.6502129138785087,0.2725524621687149,0.1626781812506503,0.1139672984625396,0.1228953306717583,0.1901779680108132
0.3430115405751969,0.1920618261616258,0.3066791364663705,0.7725628036803474,0.5653598014888337,0.193375744723821,0.745719996523855,0.2808293620934703,0.1619498491312039,0.0893597982591718,0.0747439680611005,0.1147105203874746
0.248488734200403,0.2068504913653277,0.3990335905229522,0.8178434818567146,0.4553846153846154,0.2610320105018681,0.7713565655687843,0.2709639662235598,0.1831755280407866,0.1117709265435614,0.0765144940114563,0.0805136291957648
0.1525004579593331,0.2199217631905352,0.4915439170758319,0.8648816292773701,0.3444168734491314,0.3277794607694637,0.7715303728165464,0.2599280996572193,0.206690250754344,0.1395102904091759,0.0873806630793265,0.0580310880829015
0.096079868107712,0.2607575613014026,0.5728314238952537,0.8747027809366278,0.2620347394540943,0.4021003736241542,0.7896932302076997,0.2973831619429813,0.2624596816148164,0.1894980883429594,0.1144940114563444,0.0582113088533453
0.0864627221102766,0.3645644499570651,0.6658093679370275,0.823839553396051,0.1976178660049627,0.5173179844491568,0.8321021986616842,0.3936961792492266,0.3622932057018,0.2728788741560238,0.170595382746051,0.0961928362243748
0.0867374977102033,0.4834462360461788,0.762684124386252,0.7593300940762948,0.1361786600496277,0.6429364838937695,0.8459198748587816,0.4829027673271465,0.4578607845177401,0.3527210607662897,0.2283284152056935,0.1410678080648794
0.1029492581058802,0.5598702413891805,0.8113163432312368,0.7086736276232813,0.1139454094292803,0.7148338887205897,0.8338402711393065,0.54510492433743,0.5289251898865883,0.4118197348084276,0.2719319562575942,0.17814823158369
0.116138486902363,0.6084343097032726,0.839763073805627,0.6749715703504601,0.1029280397022332,0.7590629102292233,0.8162857391153211,0.5863222138617172,0.5800124856934763,0.4549743756609452,0.3021003298038535,0.2038747465645415
0.1281370214324968,0.659097414368858,0.8709375730652327,0.6407526103587304,0.0896277915632754,0.8060183782692113,0.8092465455809507,0.6313853356742747,0.6280303818541255,0.493898966891727,0.3282763409130359,0.2254111286325749
0.1440740062282469,0.6932544604522469,0.8852778427246513,0.6132533857128089,0.0891315136476426,0.8333838230839139,0.8159381246197966,0.6656634060697266,0.6626781812506504,0.5213536158789555,0.3470230862697449,0.2418562739355711
0.1568052756915186,0.7180612536971663,0.894786064998831,0.5925772769564768,0.0900248138957816,0.8526709078057154,0.8195011731989224,0.6835548867151575,0.6816668400790761,0.5359147482307004,0.3583752820690852,0.2520838026582563
0.1538743359589668,0.7212098082244062,0.8997739848803679,0.5925772769564768,0.0852605459057071,0.8576189033626174,0.8187190405839923,0.6889056098988379,0.6904588492352514,0.5410802895957049,0.3610137128970665,0.2540662311331381
0.1382121267631434,0.7093788760614446,0.9034369885433716,0.6077742168923809,0.0744416873449131,0.853680702817328,0.8088989310854263,0.6828024412674525,0.6882218291540944,0.5404295127308224,0.3588960249956605,0.2500112637981527
0.1304268180985528,0.7068981967369526,0.9080352271841632,0.6135635273441538,0.0672952853598014,0.8553973543370694,0.8053358825063005,0.6834712816654126,0.6906669441265217,0.5423004962173594,0.3604235375802813,0.2501464293759856
0.1435244550283934,0.7233088445758993,0.9102953783804848,0.5973327819704332,0.0728535980148883,0.865495304453196,0.8122012687929087,0.6946743583312432,0.6997710956196026,0.5478320995688604,0.364172886651623,0.2557783284523541
0.1534163766257556,0.7410552428203416,0.916374405736108,0.5821358420345291,0.0744416873449131,0.8788245986064829,0.8231511254019293,0.7086364016386589,0.7104359587972117,0.5553567070690637,0.3696927616733206,0.2621761658031088
0.1502106612932771,0.7466844766720733,0.9237004130621153,0.5808952755091491,0.0679900744416873,0.8866000201959001,0.8220213782914747,0.7082183763899339,0.7113203620851108,0.5581631822988693,0.3721228953306718,0.2644739806262672
0.1394028210294925,0.7392424386985975,0.9268178629880756,0.5909231882559701,0.0601488833746898,0.8846814096738361,0.8096810637003562,0.6964300643758883,0.7041931120590991,0.5538924591230782,0.3691720187467454,0.2598783509799504
0.1394028210294925,0.7297967751168782,0.9191021744213236,0.5960922154450532,0.0651116625310173,0.8746844390588709,0.8063787259928739,0.6957612239779283,0.7034647799396525,0.5531603351500854,0.36823468147891,0.2583014192385672
0.1526836416926177,0.7455395477530771,0.9206608993843036,0.5800682311588959,0.0712655086848635,0.8839745531657073,0.8134179195272443,0.707800351141209,0.7112683383622932,0.5596274302448548,0.3728866516229822,0.2641585942779905
0.1547902546253892,0.7586108195782846,0.9295456316732912,0.571797787656363,0.0667990074441687,0.8965969908108653,0.8219344746675936,0.7170805116629044,0.7181874934970347,0.5647116245017489,0.3769831626453741,0.2678080648794773
0.1478292727605788,0.7527907642400534,0.9307146753955264,0.578827664633516,0.0622332506203473,0.8943754417853176,0.8181107152168244,0.7135690995736143,0.7180834460513995,0.5637761327584805,0.3760111091824336,0.2653300292858752
0.1392196372962081,0.7430588684285852,0.9300132491621852,0.5889589579241186,0.0580645161290322,0.8887205897202868,0.804293039019727,0.7004431067636485,0.7108521485797524,0.5576344260961523,0.3709425446971012,0.2591124127055643
0.1345484520974537,0.7393378494418472,0.9311043566362714,0.5937144629380751,0.054789081885856,0.8875088357063515,0.801164508560007,0.6980185603210434,0.7090833420039538,0.5548279508663467,0.3688595729908002,0.2569497634602388
0.1454478842278805,0.7549852113347963,0.934533551554828,0.5790344257210793,0.0585607940446649,0.8979097243259618,0.8123750760406708,0.709806872335089,0.716574758089689,0.5609696575286749,0.3728519354278771,0.2615003379139446
0.1532331928924711,0.767674840187005,0.9382744914659809,0.5677659464488783,0.0603473945409429,0.9070988589316368,0.8269748848526984,0.7240197307917398,0.7267714077619395,0.568697632799154,0.3786148238153099,0.2678080648794773
0.1439824143616047,0.7581337658620362,0.93835242771413,0.5781040008270444,0.0552853598014888,0.9021508633747348,0.8327974276527331,0.7266950923835799,0.7294246176256374,0.5699991865289189,0.3793785801076202,0.2679882856499211
0.1328997984978933,0.7461120122125753,0.9379627464733848,0.5909231882559701,0.0495285359801488,0.8954862162980913,0.8228904145302859,0.7158264359167295,0.7225054624908959,0.5645896038395836,0.3749001909390731,0.261950889840054
0.1333577578311045,0.7454441370098275,0.9370275114955964,0.5910265687997519,0.0503225806451612,0.8944764212864788,0.8173285826018946,0.7149067803695344,0.7225054624908959,0.5645082567314732,0.3742752994271828,0.2605992340617256
0.1427001282286132,0.7558439080240436,0.9375730652326396,0.5800682311588959,0.0550868486352357,0.9003332323538322,0.8270617884765794,0.7300392943733802,0.733690562896681,0.5726022939884488,0.3795521610831453,0.2653750844784862
0.1533247847591133,0.7739719492414846,0.9433403475956668,0.5642510079603018,0.0571712158808932,0.9137635060082804,0.83644737985574,0.7432488922330908,0.7445114972427428,0.5810623932319205,0.3847248741537927,0.271592701058797
0.1503022531599194,0.7739719492414846,0.9459122437845842,0.56600847720459,0.0538957816377171,0.9153791780268604,0.8325367167810898,0.7428308669843658,0.7450317344709187,0.5821605791914097,0.3850373199097379,0.2712322595179094
0.1379373511632167,0.7589924625512834,0.9442755825734548,0.5811020365967124,0.0482382133995037,0.906392002423508,0.8264534631094116,0.7372293286514505,0.741181978982416,0.5778085089075083,0.3809755250824509,0.2653300292858752
0.1331745740978201,0.7583245873485356,0.9477047774920117,0.5841000723663806,0.0434739454094292,0.908310612945572,0.823846354392978,0.7356408327062954,0.7393611486837999,0.5765069551777434,0.3787536885957299,0.2615904482991665
0.1368382487635098,0.7705371624844958,0.9544852310809758,0.5754161066887212,0.041091811414392,0.9191154195698272,0.8353176327452854,0.746091463924421,0.746592446155447,0.5823232734076303,0.3823988890817567,0.2649695877449876
0.1450815167613116,0.7769296822822251,0.9527706336216974,0.5673524242737517,0.0467493796526054,0.9213369685953752,0.8479186582080472,0.7593846668338767,0.7556445739257103,0.588058244529407,0.387224440201354,0.2700608245100248
0.1436160468950357,0.7728270203224883,0.950666354921674,0.5703504600434198,0.0472456575682381,0.917903665555892,0.8466151038498304,0.7603043223810718,0.7562688585995214,0.5869193850158627,0.3855233466412082,0.2683937823834196
0.1269463271661476,0.7587062303215344,0.9532382511105916,0.5874082497673938,0.0366253101736972,0.9120468544885388,0.8388806813244113,0.7485996154167712,0.7491416085735096,0.5802489221508176,0.3791702829369901,0.2596080198242847
0.1173291811687122,0.7572750691727889,0.9603304496921518,0.5936110823942933,0.0268982630272952,0.9158840755326668,0.8361866689840967,0.7444193629295208,0.746592446155447,0.5784592857723908,0.376774865474744,0.2543816174814147
0.1294193075654881,0.7749260566739816,0.9644610708440496,0.5772769564767911,0.0307692307692307,0.9279006361708572,0.8450508386199704,0.7579633809882117,0.756060763708251,0.5871634263401936,0.3837181044957473,0.261950889840054
0.1410514746290529,0.7840854880259518,0.96204504715143,0.5656983355732451,0.0386104218362282,0.931232959709179,0.8560875988528721,0.7763564919321126,0.7703152637602747,0.5971691206377614,0.391529248394376,0.2704212660509124
0.1329913903645356,0.7743535922144834,0.960953939677344,0.5756228677762846,0.0349379652605458,0.9252751691406644,0.8527852611453897,0.7778613828275228,0.7720320466132558,0.5972504677458716,0.3902447491754904,0.2683487271908087
0.1187030591683458,0.7604236237000287,0.961733302158834,0.5911299493435335,0.0266997518610421,0.9184085630616984,0.843225862518467,0.7698352980520023,0.7675059827281241,0.5928577239079151,0.385210900885263,0.261094841180446
0.1201685290346217,0.7546035683617975,0.95573221105136,0.5935077018505117,0.03136476426799,0.9114409774815712,0.8414008864169635,0.7745171808377226,0.7689106232441995,0.5939559098674042,0.3848984551293178,0.2601486821356161
0.1372046162300787,0.7669115542410077,0.9512898449068662,0.5771735759330094,0.0433746898263027,0.915177219024538,0.8482662727035717,0.7899841150405484,0.7800957236499845,0.60078906694867,0.3903488977608054,0.2674476233385898
