Lead I,Lead II,Lead III,aVR,aVL,aVF,V1,V2,V3,V4,V5,V6
0.1383953104964279,0.7728270203224883,0.9551087210661678,0.5733484958130879,0.0415880893300248,0.9207310915884076,0.806465629616755,0.7404063205417607,0.7456039954219125,0.5860652403807045,0.3962159347335532,0.279522414958324
0.1283202051657812,0.7624272493082722,0.9551866573143168,0.5847203556290707,0.0361290322580644,0.9152781985256992,0.7991657252107413,0.7348883872585904,0.7427426906669442,0.582485967623851,0.391633396979691,0.2743861230006758
0.1358307382304451,0.7665299112680088,0.9521471436365052,0.578207381370826,0.0420843672456575,0.9154801575280216,0.8009907013122447,0.7414931861884457,0.7481011341171575,0.5848450337590498,0.3927095990279465,0.2750168956972291
0.1475544971606521,0.7788378971472188,0.9522250798846544,0.5649746717667735,0.0483374689826302,0.922043825103504,0.8146345702615799,0.7577125658389767,0.7592862345229425,0.5919222321646466,0.397882312098594,0.2801531876548772
0.1511265799596995,0.785230416944948,0.9544072948328268,0.5593921224025638,0.0489330024813895,0.9268908411592446,0.823672547145216,0.7671599364601622,0.766205389657684,0.596274302448548,0.4012844992188856,0.2835323271006983
0.1439824143616047,0.7851350062016984,0.9604863221884498,0.5635273441538302,0.0411910669975186,0.9307280622033728,0.8197618840705656,0.7664910960622021,0.7659452710435959,0.5960709346782722,0.3994098246832147,0.2798378013066006
0.1373877999633632,0.7813185764717108,0.9629023458810694,0.5693166546056032,0.0361290322580644,0.9302231646975664,0.8101155818197617,0.7644009698185771,0.7668296743314953,0.5959082404620516,0.3959382051727131,0.2748366749267853
0.1470049459607987,0.7816048087014599,0.9549528485698698,0.5637341052413936,0.0463523573200992,0.9252751691406644,0.8117667506735031,0.7774433575787978,0.7760898969930289,0.6019279264622143,0.3986807845860094,0.2765037170533904
0.1612016852903462,0.7924816334319246,0.9516795261476112,0.549881112374651,0.0561786600496278,0.92891043118247,0.8208916311810203,0.7989298553632639,0.7912808240557695,0.6113235174489546,0.4059364693629578,0.2821356161297589
0.1701776882212859,0.8054574945138824,0.9547190398254228,0.5376822082084152,0.0590570719602977,0.9377966272846612,0.8283653428347961,0.8161524956107349,0.8035063989179067,0.6189701456113236,0.4103801423363999,0.2871367425095742
0.1673383403553764,0.8008777788378972,0.9533941236068896,0.5418174299596815,0.0583622828784119,0.9344643037463396,0.8209785348049012,0.8175737814563999,0.8053272292165228,0.619092166273489,0.408331886825204,0.2853345348051363
0.1613848690236307,0.7903825970804313,0.949886992440184,0.5509149178124677,0.0573697270471463,0.9265879026557609,0.8106370035630486,0.8143131845163447,0.8048590157111644,0.6181973480842756,0.4053115778510675,0.2814597882405947
0.1643158087561824,0.7978246350539071,0.9534720598550386,0.5451256073606947,0.0566749379652605,0.9329496112289206,0.8173285826018946,0.8295293035699357,0.8144834044324212,0.6235662572195558,0.4070473876063183,0.2825411128632575
0.1776882212859498,0.8198645167445855,0.960174577195854,0.5256900651297426,0.059652605459057,0.9489043724124,0.8285391500825584,0.8521862720508319,0.8291540942669858,0.633165215976572,0.4139559104322167,0.2896598332957873
0.1845576112841179,0.837229272016029,0.9684358194996492,0.5123539749819084,0.0581637717121587,0.9634454205796222,0.8345355001303554,0.8670679709054427,0.8400270523358653,0.6402830879362238,0.4183995834056588,0.295201621986934
0.1733834035537644,0.8356072893807843,0.9766191255552956,0.5195906130466246,0.0468486352357319,0.967888518630718,0.8292343790736074,0.8665663406069727,0.8414837165747582,0.6397950052875621,0.4163860440895678,0.291732372155891
0.1676131159553031,0.8320770918805458,0.97864546800717,0.5247596402357076,0.0423821339950372,0.9673836211249116,0.8213261493004258,0.8621352729704874,0.8403912183955885,0.6368258358415358,0.4123242492622809,0.2874070736652399
0.1760395676863894,0.8435263810705086,0.9808276829553424,0.5138013025948517,0.0455583126550868,0.974755124709684,0.8248891978795515,0.8712482233926929,0.846113827905525,0.6398356788416173,0.4131227217496963,0.2883532327100698
0.1907858582157904,0.8554527239767199,0.977944041773829,0.4990178848340742,0.0553846153846153,0.9792992022619408,0.8375771269661945,0.889892149485829,0.8566746436374989,0.6462214268282762,0.4178441242839785,0.2940301869790493
0.1913354094156439,0.8571701173552143,0.978957212999766,0.4977773183086943,0.0550868486352357,0.9808138947793597,0.8458329712349005,0.8988378898085445,0.8612007075226303,0.6475636541120964,0.4176705433084534,0.2947961252534354
0.1764975270196006,0.8470565785707472,0.9833216428961108,0.5116303111754368,0.0442679900744416,0.9782894072503282,0.8403580429303902,0.8873839979934789,0.8550098845073355,0.6422760920849263,0.4135393160909565,0.2897048884883983
0.165689686755816,0.8396145405972714,0.9864390928220717,0.5217616044660395,0.0364267990074441,0.9763707967282642,0.8317545841661597,0.8731711395368281,0.8469982311934242,0.6354836085577158,0.4078805762888388,0.2837125478711421
0.1693533614215057,0.8454345959355025,0.9880757540332008,0.5165925772769565,0.0373200992555831,0.980510956275876,0.832710524028852,0.874341610233258,0.8466860888565186,0.636337753192874,0.4090262107273043,0.2859202523090786
0.1851987543506136,0.8622268867474479,0.988309562777648,0.4985009821151659,0.0458560794044664,0.9894981318792284,0.8347962110019987,0.8820332748097984,0.8507959629591094,0.6412999267876027,0.4143725047734768,0.2946159044829916
0.1960065946143982,0.8747256941131573,0.989244797755436,0.48568179468624,0.0510173697270471,0.9967686559628396,0.829755800816894,0.8785218627205084,0.8490271563833108,0.6411779061254372,0.4178094080888735,0.3002027483667492
0.1924345118153508,0.8730083007346628,0.9909593952147144,0.4885764499121265,0.0480397022332506,0.996970614965162,0.8146345702615799,0.8607975921745673,0.8374258661949849,0.6337753192873994,0.4152056934559973,0.2993466997071412
0.1888624290163033,0.8654708520179374,0.9878419452887538,0.4946759019952444,0.0480397022332506,0.9909118448954862,0.7979490744764056,0.8411504054844912,0.8231193424201436,0.6256812820304238,0.4115604929699705,0.2976346023879252
0.1983879831470965,0.8638488693826926,0.978411659262723,0.4902305386126331,0.0592555831265508,0.9839442593153588,0.79516815851221,0.836301312599281,0.8167724482363959,0.6234849101114456,0.4117687901406006,0.3005181347150259
0.2152408866092691,0.8703367999236715,0.9692931182292884,0.4772045900961438,0.0741439205955334,0.9815207512874884,0.8002954723211958,0.8397291196388261,0.8177608989699303,0.627836980395347,0.418920326332234,0.3093038972741608
0.2206448067411613,0.8703367999236715,0.9646948795884964,0.4741031737826941,0.0799999999999999,0.978592345753812,0.802033544798818,0.837471783295711,0.815836021225679,0.6295452696656634,0.4239541746224614,0.3156566794323046
0.2139586004762776,0.8556435454632193,0.9584599797365756,0.4857851752300217,0.0803970223325061,0.966777744117944,0.7935169896584688,0.81790820165538,0.8012693788367496,0.6227121125843976,0.4212810275993751,0.3148907411579185
0.2045246382121267,0.8347485926915371,0.9494193749512898,0.5025328233226507,0.081091811414392,0.9498131879228516,0.7816111931867559,0.7939135523785636,0.7837373842472167,0.6131945009354917,0.4166984898455129,0.3118269880603739
0.2050741894119802,0.8222497853258278,0.9387421089548748,0.5089424170371136,0.0881389578163771,0.936281934767242,0.7758755540106023,0.7829612908619681,0.7745812090313183,0.6088424306515903,0.416802638430828,0.3138995269204776
0.2171643158087561,0.8293101803263049,0.9342997428103812,0.4982942210276026,0.0975682382133995,0.9371907502776936,0.779525506213609,0.7809547696680879,0.772396212672979,0.6085577157732043,0.4203089741364347,0.3187204325298491
0.2199120718080234,0.8290239480965558,0.9316499103733146,0.496950273958441,0.1006451612903225,0.9352721397556296,0.7762231685061266,0.7705877434997074,0.7655290812610551,0.6057105669893436,0.4211768790140601,0.3202523090786213
0.2085546803443854,0.8185287663390899,0.9327410178474008,0.5089424170371136,0.0938957816377171,0.9304251236998888,0.7570174676284002,0.7465094891731461,0.7487254187909688,0.5948100545025624,0.4155875716021525,0.31353908537959
0.1980216156805275,0.8018318862703941,0.92806484295846,0.524035976429236,0.0911166253101736,0.9186105220640208,0.7383331884939602,0.7243541509907199,0.7321298512121528,0.5836248271373953,0.4090956431175143,0.3057895922505068
0.2037003114123465,0.8009731895811469,0.92253136933988,0.5212447017471312,0.097667493796526,0.9145713420175704,0.7366820196402191,0.7186690076080595,0.7253147435230466,0.5802489221508176,0.4073945495573686,0.3049785987835098
0.2117603956768638,0.8044079763381359,0.9185566206842803,0.5148351080326682,0.1046153846153846,0.9137635060082804,0.7512818284522464,0.7242705459409747,0.7259910519196754,0.5808996990156999,0.4091303593126194,0.3089434557332732
0.2081883128778164,0.791718347485927,0.911152677110124,0.523725834797891,0.107394540942928,0.9022518428758962,0.7625792995567915,0.7233508903937799,0.7237540318385184,0.5786626535426665,0.4079847248741538,0.310024780355936
0.1937167979483421,0.7716820914034921,0.9070999922063752,0.5427478548537165,0.1021339950372208,0.8890235282237705,0.7550186842791344,0.7057938299473289,0.7106960774112996,0.5684942650288782,0.4010067696580455,0.3026807839603514
0.1802527935519325,0.7561301402537927,0.905775075987842,0.5587718391398739,0.095682382133995,0.8799353731192567,0.7474580690014773,0.6886547947496029,0.6988866923317033,0.5596274302448548,0.3939940982468322,0.2949763460238792
0.1792452830188679,0.7536494609293007,0.9046060322656068,0.5607360694717255,0.0958808933002481,0.8779157830960315,0.754062744416442,0.6865646685059777,0.6972219332015399,0.5582038558529244,0.3935427877104669,0.2935345798603289
0.1876717347499542,0.7567980154565405,0.9000857298729639,0.5542230952134808,0.1033250620347394,0.8766030495809349,0.7695315894672808,0.6951759886297132,0.7016439496410364,0.562067843488164,0.3977781635132789,0.2988961477810318
0.1906942663491481,0.7583245873485356,0.8987608136544307,0.551741962162721,0.1058064516129032,0.8765020700797738,0.7767445902494133,0.6973497199230834,0.7012797835813132,0.5624745790287156,0.3985766360006944,0.299571975670196
0.1788789155522989,0.7475431733613206,0.9000077936248149,0.5641476274165202,0.0986600496277915,0.871655054024033,0.7706613365777353,0.6848089624613327,0.6940484861096661,0.5560481574880013,0.393681652490887,0.2938950214012165
0.1685290346217255,0.7380020990363515,0.901020964850752,0.5752093456011579,0.0924069478908188,0.8672119559729374,0.7608412270791691,0.671766574701112,0.6861929039642077,0.5495403888391768,0.3882312098593994,0.2856949763460239
0.171734749954204,0.7434405114015838,0.9027355623100304,0.5704538405872015,0.0930024813895781,0.8712511360193881,0.7664030590075606,0.6779533483822423,0.6886380189366351,0.5520214756365411,0.38934212810276,0.287362018472629
0.1862978567503205,0.7599465699837802,0.9038266697841164,0.5532926703194458,0.1002481389578163,0.8806422296273856,0.7820457113061615,0.6939219128835381,0.698262407657892,0.5595054095826894,0.3945148411734074,0.2946609596756026
0.1884044696830921,0.7663390897815096,0.9072558647026732,0.5486405458492711,0.0991563275434243,0.8862970816924164,0.7917789171808464,0.6996906613159435,0.7035168036624702,0.5637354592044254,0.3983683388300642,0.2980851543140347
0.177413445686023,0.7597557484972808,0.9112306133582728,0.5583583169647472,0.0906203473945409,0.885388266181965,0.7839575910315459,0.689992475545523,0.6984184788263449,0.559952818677296,0.395834056587398,0.2935345798603289
0.1720095255541307,0.7580383551187865,0.9144259995323823,0.5623901581722319,0.0856575682382134,0.8866000201959001,0.7770053011210567,0.6827188362177076,0.6950889605660182,0.5569836492312699,0.3927790314181565,0.2898851092588421
0.1757647920864627,0.7679610724167543,0.9193359831657704,0.5549467590199524,0.0845657568238213,0.894981318792285,0.7823933258016859,0.6869826937547027,0.6998751430652378,0.5602782071097373,0.3944454087831974,0.2915972065780581
0.1862978567503205,0.7837038450529531,0.923232795573221,0.54047348289052,0.0878411910669975,0.9058871049177016,0.7962979056226644,0.7016135774600787,0.7077307252106961,0.5662165460017896,0.3986807845860094,0.2976346023879252
0.1909690419490749,0.7881881499856885,0.922921050580625,0.5354078362452186,0.0905210918114143,0.9080076744420882,0.8055096897540627,0.7105593177827941,0.7127250026011862,0.5697551452045879,0.4009720534629404,0.2997972516332507
0.1769554863528118,0.7776929682282226,0.9263502454991815,0.5489506874806162,0.0807940446650124,0.9046753509037664,0.8065525332406361,0.7011119471616085,0.7081989387160545,0.566053851785569,0.3974310015622288,0.2950664564091012
0.166788789155523,0.7677702509302549,0.9268957992362248,0.5600124056652538,0.0749379652605459,0.8998283348480258,0.8009907013122447,0.692417021988128,0.7013318073041307,0.559952818677296,0.3922235722964763,0.2887136742509574
0.1712767906209928,0.7626180707947716,0.9187904294287274,0.5603225472965988,0.0824813895781637,0.8918509542562859,0.8060311114973495,0.6967644845748683,0.7025283529289357,0.5615797608395021,0.3929178961985766,0.2896147781031764
0.1797032423520791,0.7664345005247591,0.9147377445249786,0.5534994314070092,0.0897270471464019,0.8912450772493185,0.8188928478317545,0.708051166290444,0.7093434606180419,0.567396079069389,0.3983683388300642,0.2959675602613201
0.1808939366184282,0.7597557484972808,0.9082690359286104,0.5564974671766773,0.0943920595533498,0.883469655659901,0.8244546797601459,0.7127330490761642,0.712100717927375,0.5685756121369885,0.4001041485853151,0.298715927010588
0.1679794834218721,0.7465890659288237,0.9084249084249084,0.5708673627623281,0.0873449131513647,0.8766030495809349,0.8175892934735378,0.7031184683554886,0.706170013526168,0.564426909623363,0.3966325290748134,0.2946159044829916
0.1572632350247297,0.7377158668066025,0.9103733146286338,0.5817223198594025,0.0802977667493796,0.8731697465414521,0.8093334492048319,0.6936710977343031,0.7010716886900427,0.5609696575286749,0.3942023954174623,0.2906059923406172
0.1642242168895402,0.7429634576853354,0.9087366534175044,0.5750025845135945,0.085062034739454,0.8748863980611935,0.8149821847571043,0.6991054259677284,0.7035688273852878,0.5636134385422598,0.3963895157090783,0.2927686415859428
0.1703608719545704,0.7508825493750597,0.9100615696360376,0.5671456631861883,0.0876426799007444,0.8799353731192567,0.8294950899452507,0.7111445531310091,0.7110082197482053,0.5702025542991946,0.4017358097552508,0.2986258166253661
0.1682542590217988,0.7510733708615591,0.911932039591614,0.5682828491677866,0.0852605459057071,0.8812481066343533,0.8328843312766141,0.7119806036284592,0.7126209551555509,0.5715041080289596,0.4029508765839264,0.2993016445145303
0.1576296024912987,0.7401011353878447,0.9120099758397632,0.5802749922464593,0.0794044665012406,0.8754922750681612,0.8178500043451812,0.6941727280327732,0.7028404952658412,0.5626779467989913,0.3971185558062836,0.2914169858076143
0.1483788239604323,0.7313233470088732,0.912711402073104,0.5901995244494986,0.0740446650124069,0.8712511360193881,0.8050751716346571,0.6774517180837722,0.69352824888149,0.5558854632717807,0.3913209512237459,0.284703762108583
0.1522256823594064,0.7393378494418472,0.9159067882472136,0.583686550191254,0.0740446650124069,0.8776128445925476,0.8006430868167201,0.6790402140289273,0.6936322963271252,0.5573090376637111,0.3930220447838917,0.2874070736652399
0.1634914819564022,0.7499284419425629,0.9150494895175746,0.5715910265687997,0.0806947890818858,0.882661819650611,0.8037716172764404,0.6875679291029178,0.6993028821142442,0.5625152525827707,0.3979864606839091,0.2939851317864383
0.1643158087561824,0.7529815857265528,0.916919959473151,0.5694200351493848,0.0799999999999999,0.8854892456831261,0.803424002780916,0.6857286180085277,0.6983144313807097,0.5632473765557635,0.3994792570734248,0.2964631673800405
0.1583623374244367,0.7433451006583341,0.9140363182916372,0.5780006202832627,0.0785111662531017,0.878521660102999,0.7894325193360563,0.6715157595518769,0.6900946831755281,0.5575124054339868,0.3951397326852977,0.2924532552376661
0.154332295292178,0.7356168304551093,0.9112306133582728,0.5845135945415073,0.078213399503722,0.8725638695344844,0.7743112887807421,0.6593094222891062,0.6834876703776923,0.5527535996095339,0.3909390730775907,0.2882180671322369
0.1591866642242168,0.7380975097796012,0.9090483984101004,0.5803783727902408,0.0821836228287841,0.8725638695344844,0.7754410358911967,0.6640749101245714,0.6875455207574654,0.554909297974457,0.3932650581496268,0.2904257715701734
0.1671551566220919,0.7453487262665777,0.9082690359286104,0.5720045487439264,0.0869478908188585,0.8758961930728061,0.7859563743808117,0.6784549786807123,0.6946727707834773,0.5605629219881233,0.398021176879014,0.2961477810317639
0.1681626671551566,0.7443946188340808,0.906554438469332,0.5720045487439264,0.0886352357320099,0.8741795415530647,0.7877813504823151,0.6807123150238275,0.695505150348559,0.5606442690962335,0.3983336226349592,0.2966884433430953
0.1586371130243634,0.7339948478198646,0.906164757228587,0.5829628863847824,0.0836724565756823,0.8685246894880339,0.7743981924046232,0.6680879525123318,0.686557070023931,0.5537704384609127,0.3926401666377365,0.2889389502140121
0.1541491115588935,0.7293197214006297,0.906164757228587,0.5880285330300837,0.0812903225806451,0.8660002019590023,0.7602329017120013,0.656299640498286,0.6785454167100198,0.5477100789066949,0.387363304981774,0.2834872719080874
0.160010991023997,0.7338994370766149,0.9049177772582028,0.5822392225783107,0.0852605459057071,0.8676158739775826,0.762231685061267,0.6613995485327314,0.6799500572260951,0.5494590417310664,0.3892379795174449,0.2861004730795224
0.1734749954204066,0.749260566739815,0.9060088847322888,0.566318618835935,0.0918114143920595,0.8765020700797738,0.7708351438254974,0.6732714655965221,0.6873894495890126,0.5558854632717807,0.393751084881097,0.2911015994593376
0.1788789155522989,0.7506917278885603,0.9025796898137324,0.5624935387160136,0.0969727047146401,0.8749873775623547,0.7743112887807421,0.6779533483822423,0.6893663510560816,0.5569836492312699,0.3945495573685124,0.2915521513854472
0.1711851987543506,0.7391470279553478,0.8996960486322189,0.5731417347255247,0.0945905707196029,0.8670099969706149,0.7637959502911271,0.6656634060697266,0.6813026740193528,0.5497437566094525,0.3882659260545044,0.2860554178869115
0.1617512364901996,0.7290334891708806,0.8994622398877717,0.5838933112788173,0.0897270471464019,0.8614561244067455,0.7582341183627358,0.6580553465429312,0.6761003017375924,0.5447002359066135,0.3843429960076376,0.2821356161297589
0.1688038102216523,0.7318958114683713,0.8958771724729171,0.5784141424583893,0.0957816377171215,0.8606482883974552,0.7638828539150082,0.6649945656717665,0.6775569659764853,0.54775075246075,0.3860788057628884,0.2849740932642487
0.1849239787506869,0.7475431733613206,0.894786064998831,0.5608394500155071,0.1052109181141439,0.8682217509845501,0.7739636742852176,0.6775353231335173,0.6849963583394028,0.5541365004474091,0.3914598160041659,0.2919125929263347
0.1889540208829456,0.7554622650510447,0.8979814511729406,0.5542230952134808,0.105409429280397,0.8745834595577098,0.7798731207091335,0.6851433826603126,0.6905108729580689,0.5577971203123729,0.3952785974657178,0.2964181121874296
0.1821762227514196,0.7548898005915468,0.9032811160470734,0.5583583169647472,0.0983622828784119,0.8777138240937089,0.7762231685061266,0.6785385837304574,0.6883779003225471,0.5549499715285121,0.3939940982468322,0.2938049110159946
0.1742993222201868,0.7497376204560635,0.9056971397396928,0.5655949550294634,0.0925062034739453,0.8765020700797738,0.7763969757538889,0.6754451968898921,0.6882218291540944,0.5534043764744163,0.3921194237111612,0.2920928136967786
0.1775966294193075,0.7578475336322871,0.9095160158989946,0.5592887418587822,0.0918114143920595,0.8832676966575784,0.7889980012166508,0.6845581473120976,0.6934242014358548,0.5573090376637111,0.3941676792223572,0.2940301869790493
0.1884044696830921,0.773590306268486,0.9131790195619982,0.544712085185568,0.0953846153846153,0.8939715237806725,0.8060311114973495,0.6986037956692583,0.7014878784725835,0.5633693972179289,0.3992709599027947,0.2994818652849741
0.1862062648836783,0.7753076996469803,0.9164523419842568,0.545022226816913,0.0921091811414391,0.8970009088155104,0.8122012687929087,0.7010283421118636,0.7027364478202061,0.564426909623363,0.4011803506335706,0.3014642937598558
0.1780545887525187,0.7650987501192635,0.9151274257657236,0.5551535201075157,0.0885359801488833,0.8907401797435119,0.8055096897540627,0.6930022573363431,0.6972739569243576,0.5593833889205239,0.3974310015622288,0.2970488848839829
0.1692617695548635,0.7531724072130522,0.912711402073104,0.5666287604672801,0.0852605459057071,0.8828637786529333,0.8038585209003215,0.6879023493018978,0.6939964623868485,0.5553567070690637,0.3938552334664121,0.2929939175489975
0.1706356475544971,0.7544127468752984,0.9126334658249552,0.5651814328543369,0.0860545905707196,0.883469655659901,0.8128095941600765,0.6943399381322632,0.6967537196961815,0.5565769136907183,0.3948967193195626,0.2947060148682136
0.1756732002198204,0.76309512451102,0.9154391707583196,0.5576346531582757,0.0870471464019851,0.8898313642330608,0.825149908751195,0.7020316027088036,0.7015919259182188,0.5613357195151712,0.3988890817566395,0.2999774724036945
0.1761311595530316,0.7626180707947716,0.9146598082768296,0.557531272614494,0.0877419354838709,0.8891245077249318,0.8273224993482228,0.6981021653707884,0.698938716054521,0.5601561864475718,0.3980906092692241,0.2981302095066456
0.1619344202234841,0.7472569411315715,0.9141921907879356,0.5739687790757779,0.0803970223325061,0.880743209128547,0.8151559920048665,0.6787893988796924,0.6858287379044845,0.5494997152851215,0.3890296823468148,0.287271908087407
0.1470965378274409,0.7333269726171168,0.9154391707583196,0.5897860022743721,0.0715632754342431,0.8741795415530647,0.8072477622316849,0.6672519020148816,0.6782852980959319,0.5436833970552347,0.3836139559104323,0.2815949538184276
0.1471881296940831,0.731418757752123,0.9138804457953394,0.5908198077121886,0.0726550868486352,0.8721599515298395,0.8148083775093421,0.674107516093972,0.6810425554052648,0.5457170747579924,0.385245617080368,0.2831268303671998
0.157354826891372,0.7393378494418472,0.9115423583508688,0.5807918949653675,0.0796029776674937,0.8747854185600323,0.8234118362735725,0.6864810634562327,0.6871813546977422,0.5496217359472871,0.3887866689810797,0.2869565217391304
0.156988459424803,0.7421047609960881,0.9141921907879356,0.5794479478962059,0.0777171215880893,0.8780167625971927,0.8246284870079081,0.6882367695008779,0.689054208719176,0.5507199219067762,0.3897587224440202,0.2885334534805136
0.1465469866275874,0.7346627230226124,0.917075831969449,0.589475860643027,0.070272952853598,0.8758961930728061,0.8078560875988527,0.673020650447287,0.6809905316824473,0.5453916863255511,0.3855580628363131,0.2831268303671998
0.1419673932954753,0.7275069172788856,0.9151274257657236,0.59588545435749,0.0689826302729528,0.870847218014743,0.7956895802554966,0.6629044394281414,0.6746956612215171,0.540592206947043,0.3814615518139212,0.2790718630322145
0.1479208646272211,0.7347581337658621,0.9159067882472136,0.588545435748992,0.0717617866004962,0.8751893365646772,0.7990788215868602,0.6694256333082519,0.6775049422536676,0.5426665582038558,0.3829543482034369,0.2814147330479837
0.1564389082249496,0.7417231180230894,0.9143480632842336,0.5800682311588959,0.0773200992555831,0.8778148035948702,0.8070739549839229,0.6798762645263775,0.6844240973884091,0.5480761408931912,0.3868078458600937,0.2872268528947961
0.1564389082249496,0.7338994370766149,0.9080352271841632,0.584306833453944,0.0812903225806451,0.8696354640008078,0.8077691839749718,0.6851433826603126,0.6865050463011134,0.5496624095013423,0.3884047908349245,0.2879927911691822
0.1458142516944495,0.7203511115351589,0.905853012235991,0.5976429236017782,0.0769230769230769,0.8610522064021003,0.7965586164943077,0.673187860546777,0.6792737488294663,0.543764744163345,0.3834750911300122,0.2818652849740933
0.1428833119618977,0.7198740578189105,0.9081131634323124,0.5995037733898481,0.0739454094292803,0.8622639604160355,0.7879551577300772,0.6633224646768665,0.6728748309229009,0.5391686325551127,0.3795868772782503,0.2774949312908312
0.1559809488917384,0.7390516172120981,0.9125555295768062,0.5817223198594025,0.078213399503722,0.8752903160658386,0.7883027722256017,0.6662486414179417,0.6752679221725107,0.54112096314976,0.3823988890817567,0.28028835323271
0.1680710752885143,0.753554050186051,0.9140363182916372,0.5670422826424066,0.0838709677419354,0.8838735736645461,0.7930824715390631,0.6766156675863222,0.6830714805951514,0.5475880582445294,0.3882659260545044,0.2874971840504618
0.1614764608902729,0.7389562064688485,0.9078014184397164,0.5786209035459526,0.0841687344913151,0.8721599515298395,0.7962110019987834,0.6795418443273974,0.6841639787743212,0.548808264866184,0.3883700746398195,0.2891642261770669
0.1540575196922513,0.7244537734948956,0.9021900085729871,0.5907164271684069,0.0837717121588089,0.8608502473997778,0.7803945424524202,0.6654125909204915,0.675632088232234,0.5417717400146425,0.3827807672279118,0.282991664789367
0.151676131159553,0.7205419330216583,0.901020964850752,0.5942313656569833,0.0831761786600496,0.8580228213672624,0.7680542278613017,0.655630800100326,0.668244719592134,0.5353453184739283,0.3786842562055199,0.2775850416760532
0.1598278072907125,0.7337086155901155,0.9049177772582028,0.5824459836658742,0.0851612903225806,0.8675148944764213,0.7706613365777353,0.6563832455480312,0.6686609093746748,0.5355080126901489,0.3797257420586704,0.2801982428474882
0.1645905843561091,0.7454441370098275,0.9104512508767828,0.5734518763568697,0.0841687344913151,0.8773099060890639,0.7796993134613712,0.6634896747763565,0.67245864114036,0.5394533474334987,0.383197361569172,0.2855147555755801
0.1606521340904927,0.7417231180230894,0.9107629958693788,0.5776904786519177,0.0818858560794044,0.8755932545693224,0.7793516989658469,0.6639077000250816,0.6731869732598065,0.5399007565281054,0.3834056587398021,0.2851993692273034
0.1514013555596263,0.7257895239003913,0.9056971397396928,0.5914400909748785,0.0800992555831265,0.8638796324346157,0.7695315894672808,0.652704623359251,0.6672562688585996,0.5346945416090458,0.3795174448880403,0.2802432980400991
0.1468217622275141,0.7217822726839043,0.906242693476736,0.5961955959888349,0.0773200992555831,0.8620620014137129,0.762144781437386,0.6427556224395954,0.6623660389137447,0.5301797771089237,0.3763235549383788,0.2766388826312232
0.1561641326250228,0.7370479916038547,0.9107629958693788,0.5826527447534374,0.0794044665012406,0.8730687670402907,0.7645780829060572,0.6447621436334754,0.6652793673915306,0.532620190352233,0.3781635132789446,0.2796125253435458
0.1641326250228979,0.7462074229558249,0.9113864858545708,0.5732451152693063,0.0833746898263027,0.8783197011006765,0.7691839749717563,0.654376724354151,0.6708459057330143,0.5377043846091272,0.3825724700572818,0.2855147555755801
0.1601025828906393,0.7377158668066025,0.9078793546878652,0.5801716117026775,0.0833746898263027,0.8715540745228718,0.7702268184583296,0.656299640498286,0.6713661429611903,0.5374196697307411,0.383162645374067,0.2857400315386348
0.1502106612932771,0.7208281652514074,0.9025017535655834,0.5948516489196733,0.0814888337468982,0.8591335958800363,0.7616233596940992,0.6444277234344954,0.6634585370929144,0.5324574961360123,0.3784759590348898,0.2797476909213787
0.1519509067594797,0.7224501478866521,0.9024238173174344,0.5929907991316035,0.0824813895781637,0.8599414318893264,0.7548448770313722,0.63698687400719,0.6595047341587764,0.5285528349467177,0.3737198403055025,0.275963054742059
0.1588202967576479,0.7378112775498521,0.9092042709063984,0.5807918949653675,0.0818858560794044,0.8724628900333232,0.7580603111149735,0.6430064375888304,0.661533659348663,0.5309525746359717,0.3759763929873286,0.2778103176391079
0.1689869939549367,0.7568934261997903,0.9160626607435118,0.5646645301354285,0.083076923076923,0.8870039382005452,0.7686625532284695,0.654627539503386,0.668921027988763,0.5370942812982998,0.3815309842041312,0.2838927686415859
0.1685290346217255,0.7525999427535542,0.9129452108175512,0.56724904372997,0.0847642679900744,0.8827627991517721,0.7761362648822455,0.6612323384332414,0.6742794714389762,0.5408362482713739,0.3850373199097379,0.2876774048209056
0.1545154790254625,0.7399103139013453,0.9145039357805316,0.5821358420345291,0.076228287841191,0.87700696758558,0.7703137220822108,0.6525374132597609,0.6698574549994798,0.5371349548523551,0.3815309842041312,0.2842081549898626
0.1511265799596995,0.7414368857933404,0.9186345569324292,0.5831696474723457,0.0717617866004962,0.880440270625063,0.766750673503085,0.6462670345288855,0.6660597232337946,0.5346945416090458,0.3792744315223052,0.2801531876548772
0.1615680527569151,0.7555576757942946,0.9212843893694956,0.5696267962369481,0.0756327543424317,0.8897303847318994,0.7790040844703224,0.655965220299306,0.671938403912184,0.5391686325551127,0.3842388474223225,0.2848389276864159
0.1721927092874152,0.7670069649842574,0.9216740706102408,0.5574278920707123,0.0811910669975185,0.8959911138038978,0.7922134353002519,0.6679207424128417,0.680106128394548,0.5454730334336614,0.3886478042006596,0.2909213786888939
0.1697197288880747,0.7555576757942946,0.9143480632842336,0.5650780523105552,0.0844665012406947,0.8851863071796424,0.7963848092465456,0.6689240030097818,0.6818229112475289,0.5461644838525991,0.3892726957125499,0.290786213111061
0.1580875618245099,0.7393378494418472,0.9110747408619748,0.5803783727902408,0.0802977667493796,0.8744824800565484,0.7905622664465107,0.6609815232840064,0.6768286338570388,0.541365004474091,0.3854886304461031,0.2857850867312457
0.1534163766257556,0.7375250453201031,0.9134907645545944,0.583996691822599,0.076228287841191,0.8750883570635161,0.7882158686017207,0.6569684808962462,0.6727707834772657,0.5384365085821199,0.3825724700572818,0.2821356161297589
0.1606521340904927,0.7498330311993131,0.917387576962045,0.5732451152693063,0.0776178660049627,0.8841765121680298,0.7968193273659512,0.6670010868656466,0.6775569659764853,0.5427479053119662,0.3853497656656831,0.2854246451903582
0.1632167063564755,0.7612823203892759,0.9245577117917544,0.5655949550294634,0.0744416873449131,0.8948803392911239,0.8075084731033284,0.6788730039294373,0.6844761211112268,0.5478727731229155,0.3901406005901753,0.2902906059923406
0.1584539292910789,0.7524091212670548,0.9214402618657938,0.573038354181743,0.0739454094292803,0.8881147127133191,0.8060311114973495,0.6780369534319872,0.6841119550515035,0.5468559342715367,0.389376844297865,0.2889840054066231
0.1491115588935702,0.7377158668066025,0.917387576962045,0.5862710637857954,0.0714640198511166,0.8777138240937089,0.7942122186495176,0.6680879525123318,0.6790136302153783,0.5423004962173594,0.3860440895677834,0.284658706915972
0.1447151492947426,0.7338994370766149,0.917855194450939,0.5908198077121886,0.0687841191066997,0.8759971725739675,0.7894325193360563,0.6635732798261015,0.6773488710852149,0.5409175953794843,0.3842735636174276,0.2818202297814823
0.1525920498259754,0.7474477626180709,0.922297560595433,0.5790344257210793,0.0701736972704714,0.8860951226900938,0.79673242374207,0.671432154502132,0.683383622932057,0.5462051574066542,0.3881964936642945,0.2872268528947961
0.1571716431580875,0.7586108195782846,0.9275192892214168,0.5704538405872015,0.069379652605459,0.8953852367969302,0.8061180151212305,0.6800434746258673,0.6874934970346479,0.5492963475148458,0.391633396979691,0.2929488623563865
0.1522256823594064,0.7495467989695641,0.9243239030473072,0.578207381370826,0.0686848635235731,0.8884176512168029,0.8009907013122447,0.674525541342697,0.6839038601602332,0.5470999755958675,0.3904183301510154,0.2911015994593376
0.1466385784942297,0.7339948478198646,0.9164523419842568,0.5897860022743721,0.0706699751861042,0.8750883570635161,0.7796124098374903,0.6596438424880863,0.6745395900530642,0.5412836573659806,0.3848984551293178,0.2844784861455283
0.1448983330280271,0.7297967751168782,0.9144259995323823,0.5929907991316035,0.0709677419354838,0.871655054024033,0.773442252541931,0.655965220299306,0.6718863801893664,0.5380704465956235,0.3822947404964416,0.2807389051588196
0.1545154790254625,0.749260566739815,0.9221416880991348,0.5770701953892278,0.0712655086848635,0.886902958699384,0.7843052055270705,0.6675863222138617,0.6799500572260951,0.5433580086227934,0.3862871029335185,0.2848839828790268
0.1492031507602124,0.7742581814712338,0.9470812875068194,0.5664219993797167,0.0525062034739454,0.916287993537312,0.8062049187451116,0.690494105843993,0.6981583602122569,0.5575937525420972,0.3947231383440375,0.2914169858076143
0.130884777431764,0.780936933498712,0.9681240745070532,0.5731417347255247,0.0292803970223324,0.9334545087347268,0.823672547145216,0.7129002591756542,0.7177713037144938,0.5748800130155374,0.4046172539489672,0.2961477810317639
0.1234658362337424,0.7804598797824636,0.9740472293663784,0.5775870981081361,0.0214392059553349,0.9370897707765324,0.812548883288433,0.7044561491514088,0.7197482051815628,0.5856585048401529,0.4184690157958688,0.3067808064879477
0.1517677230261952,0.7962980631619122,0.9629023458810694,0.5530859092318825,0.0438709677419354,0.9382005452893064,0.7725732163031199,0.6809631301730624,0.7115804806991989,0.5996502074351258,0.4457212289533067,0.3371930615003379
0.2076387616779629,0.8308367522182999,0.9435741563401138,0.5028429649539956,0.0864516129032257,0.9439563768554984,0.7294690188580862,0.6664994565671767,0.7187077307252108,0.6281216952737331,0.4891511890296824,0.3870691597206578
0.2803627037919032,0.8560251884362181,0.9022679448211364,0.4481546572934973,0.1521588089330024,0.93052610320105,0.6987051360041714,0.7164952763146895,0.7845177400894809,0.7025542991946636,0.5596597812879709,0.457580536156792
0.3722293460340721,0.8771109626943995,0.8413217987686071,0.3848857644991212,0.2406947890818858,0.9022518428758962,0.6287477187798731,0.783044895911713,0.8698366455103527,0.8001708289270316,0.6566221142162819,0.5571525118269881
0.4952372229346033,0.9232897624272494,0.7743745616086042,0.2904993280264653,0.3500744416873448,0.8832676966575784,0.5067350308507864,0.7990970654627539,0.9106752679221726,0.8839176767265924,0.7752820690852282,0.6892543365622887
0.6446235574281004,0.9469516267531723,0.6665107941703686,0.1933216168717046,0.499652605459057,0.8259113399979804,0.3795081254888328,0.7706713485494523,0.8942357715118093,0.9258927845115106,0.8738413469883701,0.8093264248704664
0.8131525920498259,0.9504818242534112,0.5261476112539942,0.0962472862607256,0.6803970223325062,0.7368474199737453,0.2405492309029286,0.673689490845247,0.8029341379669129,0.8927845115106158,0.9080715153619164,0.8880378463617932
0.9199487085546804,0.952008396145406,0.436442989634479,0.035252765429546,0.795334987593052,0.6794910633141472,0.1386981837142609,0.5171808377225985,0.6423889293517845,0.7602293988448711,0.8252733900364522,0.8669520162198693
0.920589851621176,0.9238622268867476,0.4129062426934767,0.0501395637341051,0.8107196029776674,0.6493991719680904,0.0772573216303119,0.3199565253741326,0.43549058370617,0.5540551533392988,0.6408609616386045,0.732732597431854
0.831654149111559,0.7202557007919093,0.3221884498480243,0.210586167683242,0.8202481389578163,0.4828839745531657,0.1668549578517424,0.2320040130423877,0.2772864426178338,0.3468233954282925,0.4197535150147544,0.5271457535480965
0.6896867558160834,0.4322106669210954,0.2077780375652716,0.4467073296805541,0.8161786600496277,0.2563869534484499,0.3702094377335534,0.2151993980436418,0.178649464155655,0.187017001545595,0.2287797257420587,0.3211984681234512
0.5265616413262502,0.2890945520465604,0.2296001870469955,0.6163548020262587,0.7139454094292803,0.1946884782389174,0.5332406361345268,0.1578463339185686,0.0987410259078139,0.0792727568534938,0.1083145287276514,0.1770669069610272
0.3812053489650119,0.2095219921763191,0.2884420543995012,0.7414452600020676,0.5976178660049628,0.1907502776936281,0.6595116016337881,0.1405400886213527,0.0731453542815524,0.0346945416090457,0.0490539836833882,0.0907411579184501
0.2629602491298772,0.184906020417899,0.3688722624892838,0.8215651814328543,0.4823821339950371,0.2298293446430374,0.7162596680281568,0.1389515926761975,0.0918738944958901,0.0481981615553567,0.0398541919805589,0.0460013516557783
0.1633082982231177,0.1960690773781128,0.4628633777569947,0.8717047451669596,0.3685359801488834,0.2965767949106331,0.7236464760580515,0.1416269542680377,0.1257413380501509,0.0831367444887334,0.0551640340218712,0.0282946609596756
0.0947059901080784,0.2336609102184906,0.5518665731431689,0.8901064819600951,0.2746401985111662,0.3742300313036453,0.7459807073954984,0.1861048407323801,0.1852564769534908,0.1360530383144879,0.0855059885436556,0.0316287452128858
0.0833485986444403,0.3302165823871767,0.640402151040449,0.8442055205210379,0.2121091811414392,0.4826820155508431,0.8001216650734335,0.2983028174901763,0.2940901050879201,0.2229317497762954,0.1453914250998091,0.0746564541563415
0.081333577578311,0.4512928155710333,0.7410957836489751,0.7796960612012819,0.1469975186104218,0.6119357770372613,0.8339271747631877,0.4232923668589582,0.4118718135469774,0.3194500935491743,0.2152056934559972,0.1316963280018022
0.0889357025096171,0.5421238431447382,0.8086665107941703,0.7262483200661636,0.1080893300248138,0.7038271230940119,0.8228035109064047,0.4976172560822673,0.4955779835605036,0.3899780362808102,0.2676271480645721,0.1778328452354133
0.1054222385052207,0.6044270584867856,0.845608292416803,0.6832420138529929,0.0933995037220843,0.7606785822478036,0.7977752672286433,0.5429311930440599,0.5516595567578816,0.4381761978361669,0.303245964242319,0.2098220319891867
0.1232826525004579,0.6718824539643165,0.8854337152209492,0.6366173886074641,0.0777171215880893,0.8221750984550136,0.7913443990614408,0.5980269208260179,0.6094579128082406,0.4836899048238835,0.3368859572990801,0.2387474656454156
0.1433412712951089,0.7231180230893999,0.9102953783804848,0.5974361625142148,0.0727543424317617,0.8653943249520346,0.8029025810376292,0.6532898587074659,0.658256164811154,0.5215163100951761,0.3645894809928832,0.2629421040774949
0.1538743359589668,0.7424864039690869,0.917153768217598,0.5811020365967124,0.0741439205955334,0.8800363526204181,0.8042061353958461,0.6749435665914222,0.6797419623348248,0.5365655250955829,0.3750043395243881,0.2718630322144627
0.1437076387616779,0.7331361511306174,0.9182448756916842,0.5918536131500052,0.0679900744416873,0.8758961930728061,0.8060311114973495,0.6823844160187275,0.6869212360836542,0.5415276986903116,0.3775386217670543,0.2727190808740707
0.1275874702326433,0.7230226123461502,0.923622476813966,0.6064302698232192,0.0557816377171215,0.8739775825507421,0.8002085686973146,0.6767828776858122,0.6857767141816669,0.5405515333929879,0.3762888387432737,0.2683036719981978
0.1216339989008975,0.7260757561301403,0.9311822928844206,0.6080843585237259,0.0477419354838709,0.880440270625063,0.7984704962196923,0.6756124069893822,0.6858287379044845,0.5413243309200357,0.3747960423537581,0.2643838702410452
0.1281370214324968,0.741246064306841,0.9381186189696828,0.5962989765326165,0.0468486352357319,0.8929617287690599,0.8122881724167897,0.6896580553465429,0.6963375299136407,0.5494997152851215,0.3797257420586704,0.2690245550799729
0.1341820846308847,0.7569888369430399,0.945678435040137,0.584306833453944,0.0452605459057071,0.9062910229223468,0.825149908751195,0.7041217289524286,0.7068463219227968,0.5551940128528431,0.3849678875195279,0.2737553503041225
0.1267631434328631,0.7481156378208188,0.9448990725586468,0.5933009407629484,0.0417866004962779,0.9010400888619612,0.8227166072825237,0.7047069643006437,0.7079908438247842,0.5555194012852843,0.3844471445929526,0.2727641360666817
0.1125664041033156,0.7286518461978819,0.9410022601511964,0.6118060580998657,0.0366253101736972,0.8882156922144804,0.8095941600764751,0.6969316946743583,0.7035688273852878,0.5533230293663061,0.3816351327894463,0.2690696102725839
0.113115955303169,0.731991222211621,0.9432624113475176,0.6097384472242324,0.0354342431761786,0.8914470362516408,0.8059442078734683,0.6955940138784382,0.7038289459993758,0.5535670706906369,0.3816698489845513,0.2695652173913043
0.1256640410331562,0.7475431733613206,0.945288753799392,0.5942313656569833,0.0409925558312654,0.9009391093607996,0.8165464499869645,0.707716746091464,0.7124128602642806,0.5598307980151306,0.3867036972747787,0.2754223924307277
0.1306100018318373,0.753267817956302,0.9457563712882862,0.5883386746614288,0.0432754342431761,0.9042714328991214,0.8264534631094116,0.7195886631552546,0.7201643949641037,0.5658504840152933,0.3922235722964763,0.2821806713223699
0.1214508151676131,0.742772636198836,0.944977008806796,0.599193631758503,0.0389081885856079,0.8982126628294456,0.8230642217780482,0.7159100409664744,0.7193840391218396,0.5652810542585212,0.3910779378580108,0.2805136291957648
0.1121084447701044,0.7280793817383838,0.9410022601511964,0.6124263413625556,0.0363275434243176,0.8879127537109966,0.8108108108108107,0.7028676532062537,0.712360836541463,0.5597087773529651,0.3859399409824683,0.2743410678080649
0.1125664041033156,0.7300830073466273,0.9421713038734314,0.611082394293394,0.0358312655086848,0.8897303847318994,0.8078560875988527,0.6981021653707884,0.7101758401831235,0.5579598145285936,0.3835792397153272,0.2705113764361342
0.1226415094339622,0.743726743631333,0.944743200062349,0.5979530652331231,0.0397022332506203,0.8986165808340907,0.8135917267750065,0.708887216787894,0.7167828529809593,0.5635320914341495,0.3877104669328242,0.2749267853120072
0.1273126946327166,0.7514550138345578,0.9470812875068194,0.5911299493435335,0.0406947890818858,0.9042714328991214,0.8211523420526635,0.7181673773095896,0.7233378420559776,0.5686162856910436,0.3918416941503211,0.2810092363144852
0.1207180802344751,0.7446808510638298,0.9471592237549684,0.5985733484958131,0.03712158808933,0.900636170857316,0.81698096810637,0.7170805116629044,0.7224014150452607,0.5688603270153746,0.3913556674188509,0.280333408425321
0.1113757098369664,0.7366663486308559,0.9485620762216508,0.6081877390675074,0.0310669975186104,0.8974048268201554,0.8035978100286782,0.7048741744001338,0.7163666631984186,0.5634914178800944,0.3869467106405138,0.2741608470376211
0.1151309763692984,0.7408644213338422,0.9487958849660978,0.6037423756848961,0.0330521091811414,0.8997273553468645,0.7973407491092378,0.7008611320123735,0.7154302361877016,0.5624745790287156,0.3848290227391078,0.2718179770218518
0.1297856750320571,0.76004198072703,0.9519912711402072,0.5851338778041973,0.0389081885856079,0.9119458749873774,0.8022073520465803,0.7140707298720843,0.7222973675996255,0.5683722443667127,0.38948099288318,0.2772696553277765
0.1339989008976002,0.7649079286327641,0.9523809523809524,0.5800682311588959,0.0409925558312654,0.9147733010198928,0.8115060398018596,0.72836719337848,0.7310893767558008,0.5752460750020336,0.3952785974657178,0.2838927686415859
0.1292361238322036,0.7495467989695641,0.9438079650845608,0.5911299493435335,0.0438709677419354,0.9010400888619612,0.8095941600764751,0.7303737145723601,0.7334824680054105,0.5764662816236883,0.3949661517097727,0.2830367199819779
0.119527385968126,0.7340902585631143,0.939521471436365,0.604982942210276,0.0412903225806451,0.8901343027365445,0.800469279568958,0.7229328651450546,0.7303610446363542,0.5732937444073863,0.3913903836139559,0.2774498760982203
0.1204433046345484,0.7349489552523615,0.939443535188216,0.6039491367724594,0.0417866004962779,0.8905382207411896,0.7968193273659512,0.7236017055430148,0.7318697325980648,0.573456438623607,0.3912168026384308,0.275963054742059
0.1355559626305184,0.7509779601183093,0.939677343932663,0.5867879665047038,0.049925558312655,0.899121478339897,0.8078560875988527,0.7391522447955857,0.7406097180314224,0.5801675750427072,0.3951744488804027,0.2807839603514305
0.1433412712951089,0.7555576757942946,0.9367937027511496,0.5798614700713326,0.0559801488833746,0.8997273553468645,0.8199356913183279,0.7537831285009615,0.7483092290084279,0.5863499552590905,0.399895851414685,0.2853795899977472
0.1354643707638761,0.7430588684285852,0.933208635336295,0.5911299493435335,0.0539950372208436,0.8907401797435119,0.8214999565481881,0.7524454477050414,0.7479450629487047,0.5854958106239323,0.3985766360006944,0.2837576030637531
0.1233742443671002,0.7335177941036161,0.9357805315252123,0.603122092422206,0.0457568238213399,0.8874078562051904,0.8095072564525941,0.7411587659894657,0.7435230465092083,0.5815504758805824,0.3943065440027773,0.2779905384095517
0.1272211027660743,0.7388607957255988,0.9367937027511496,0.5980564457769048,0.0472456575682381,0.8908411592446733,0.805683497001825,0.7430816821336009,0.7464363749869941,0.583828194907671,0.3943065440027773,0.2775850416760532
0.1430664956951822,0.759087873294533,0.9399111526771102,0.5781040008270444,0.0537965260545905,0.903665555892154,0.8183714260884679,0.7612239779282668,0.7576734991155968,0.5925323354754739,0.4005554591216803,0.2843433205676954
0.1447151492947426,0.7672931972140065,0.945210817551243,0.5728315930941796,0.0513151364764268,0.91133999798041,0.8367949943512644,0.7804531393696179,0.7706274060971803,0.6009924347189458,0.4064919284846381,0.2910114890741158
0.1349148195640227,0.7607098559297778,0.9481723949809056,0.5819290809469657,0.0440694789081885,0.909825305462991,0.8414877900408446,0.7868907281999833,0.7745291853085007,0.603188806637924,0.4065613608748481,0.289975219644064
0.1258472247664407,0.7531724072130522,0.9498090561920348,0.5911299493435335,0.038213399503722,0.9068968999293142,0.8336664638915442,0.7819580302650281,0.7731245447924254,0.6009924347189458,0.4029161603888214,0.2840279342194188
0.1253892654332295,0.7612823203892759,0.9567453822772972,0.5868913470484854,0.0334491315136476,0.9156821165303444,0.8313200660467541,0.7851350221553383,0.7772864426178339,0.6020092735703245,0.4028467279986114,0.2823158369002027
0.1379373511632167,0.7813185764717108,0.962434728392175,0.5690065129742582,0.0367245657568238,0.9299202261940824,0.8396628139393412,0.8028592927012791,0.7886796379148892,0.6090864719759213,0.4070473876063183,0.285559810768191
0.1431580875618245,0.7900009541074327,0.9650845608292415,0.5613563527344153,0.0378163771712158,0.936281934767242,0.8474841400886417,0.8178245966056349,0.7991364062012278,0.6162043439355731,0.4112133310189203,0.2896147781031764
0.1331745740978201,0.7826543268772065,0.96757852077001,0.5709707433061098,0.0307692307692307,0.9339594062405332,0.8494829234379073,0.8192458824513,0.8022058058474665,0.6171398356788417,0.4106925880923451,0.2879477359765713
0.1188862429016303,0.7672931972140065,0.967266775777414,0.5873048692236121,0.0233250620347394,0.9256790871453094,0.8436603806378725,0.8133935289691497,0.7993965248153159,0.6137639306922639,0.4064224960944281,0.281279567470151
0.1167796299688587,0.7690105905925008,0.9703842257033748,0.5876150108549572,0.0201488833746898,0.928607492678986,0.842530633527418,0.8157344703620099,0.8016855686192904,0.615106157976084,0.4054504426314876,0.2801982428474882
0.1268547352995054,0.7894284896479344,0.978489595510872,0.5708673627623281,0.0204466501240694,0.9446632333636272,0.8499174415573129,0.8291112783212106,0.8115700759546354,0.6210851704221915,0.4093386564832494,0.2840729894120297
0.1322586554313976,0.8018318862703941,0.984023069129452,0.5611495916468521,0.0198511166253101,0.9547611834797536,0.8595637438081167,0.8436585569768413,0.8218187493497036,0.6279590010575123,0.412706127408436,0.2875872944356837
0.1181535079684923,0.794485259040168,0.990024160236926,0.573038354181743,0.0084367245657568,0.9547611834797536,0.8549578517424177,0.8440765822255664,0.8240037457080428,0.6279590010575123,0.4115257767748655,0.2848389276864159
0.1064297490382853,0.7834176128232039,0.9910373314628632,0.5856507805231056,0.0013895781637716,0.949611228920529,0.8475710437125228,0.8416520357829613,0.8230152949745084,0.625477914260148,0.4081235896545739,0.2796575805361568
0.1095438725041216,0.7894284896479344,0.9932195464110356,0.5805851338778042,0.0016873449131513,0.954155306472786,0.842443729903537,0.8456650781707215,0.8260846946207471,0.6267794679899129,0.4068043742405832,0.2781257039873845
0.1227331013006045,0.8061253697166302,0.9956355701036552,0.5641476274165202,0.0072456575682381,0.9646571745935574,0.8441818023811591,0.8586238608811972,0.8344605139943816,0.6320670300170829,0.4093039402881445,0.2818202297814823
0.1280454295658545,0.8157618547848489,0.9989868287740628,0.555980564457769,0.0080397022332506,0.9719276986771684,0.8496567306856695,0.8729203243875929,0.8438768078243679,0.6367444887334255,0.412497830237806,0.2851993692273034
0.1204433046345484,0.8090831027573705,1.0,0.5638374857851752,0.0032754342431761,0.968999293143492,0.8439210915095159,0.8741744001337681,0.8442409738840911,0.6350768730171642,0.4097205346294046,0.2818202297814823
0.1145814251694449,0.7938173838374203,0.9924401839295456,0.5754161066887212,0.0049627791563275,0.9559729374936888,0.8318414877900407,0.8684892567511078,0.8385703880969723,0.6298706580981046,0.4040270786321819,0.2752421716602838
0.1230078769005312,0.7980154565404065,0.988777180266542,0.5683862297115683,0.0118114143920595,0.9558719579925276,0.8243677761362649,0.8694089122983027,0.8374778899178026,0.6286911250305052,0.402117687901406,0.2743861230006758
0.1376625755632899,0.8140444614063544,0.989478606499883,0.551431820531376,0.0192555831265508,0.96485913359588,0.830451029807943,0.8792743081682133,0.8453334720632608,0.633165215976572,0.4072556847769485,0.2813246226627618
0.1412346583623374,0.8195782845148365,0.9908814589665652,0.5463661738860747,0.0203473945409429,0.9685953751388467,0.8376640305900757,0.8848758465011287,0.8489231089376755,0.6361750589766533,0.4115604929699705,0.2861905834647443
0.1346400439640959,0.8084152275546227,0.9873743277998596,0.5561873255453323,0.0189578163771711,0.9605170150459456,0.8322760059094463,0.8796087283671934,0.8420559775257517,0.6334092573009029,0.4089914945321993,0.2851543140346925
0.1299688587653416,0.7962026524186624,0.9813732366923856,0.5654915744856818,0.0202481389578163,0.9501161264263354,0.8148952811332233,0.8639745840648775,0.8325876599729477,0.626535426665582,0.4043395243881271,0.2798828564992115
0.1396775966294192,0.7985879209999047,0.9750604005923156,0.5586684585960922,0.0295781637717121,0.94728870039382,0.8065525332406361,0.8536911629462419,0.8281656435334512,0.6245830960709347,0.4056587398021177,0.2820455057445371
0.1628503388899065,0.8149031580956017,0.9686696282440962,0.5367517833143802,0.0461538461538461,0.9518327779460768,0.8084644129660206,0.8577878103837472,0.8291020705441682,0.6283657365980639,0.4113521957993404,0.2920477585041676
0.1739329547536178,0.8245396431638203,0.967110903281116,0.5252765429546159,0.0532009925558312,0.9558719579925276,0.8072477622316849,0.8594599113786473,0.828477785870357,0.629707963881884,0.4166637736504079,0.3019599008785762
0.1755816083531782,0.8144261043793533,0.9573688722624892,0.5298252868810089,0.0602481389578163,0.9441583358578208,0.7927348570435387,0.8458322882702115,0.8195297055457289,0.6263727324493614,0.4169762194063531,0.3043478260869565
0.1736581791536911,0.7965842953916612,0.944509391317902,0.5405768634343017,0.0674937965260546,0.9264869231545996,0.7762231685061266,0.8267703369283503,0.8057954427218813,0.6199463109086472,0.4155875716021525,0.3039873845460689
0.1831837332844843,0.7975384028241581,0.9371833839918948,0.534684172438747,0.0773200992555831,0.9221448046046652,0.7686625532284695,0.8139787643173648,0.7977317656851525,0.6166517530301798,0.4179482728692935,0.3079071863032214
0.2034255358124198,0.8132811754603569,0.9328189540955498,0.5147317274888865,0.0910173697270471,0.9276986771685346,0.7732684452941687,0.8141459744168549,0.7973675996254292,0.6191328398275441,0.4244749175490366,0.3177292182924082
0.2145997435427734,0.8225360175555768,0.9308705478918244,0.5034632482166855,0.0983622828784119,0.9313339392103402,0.7745719996523854,0.8125574784716996,0.795546769326813,0.6214919059627431,0.4292657524735289,0.3247578283397161
0.2098369664773768,0.8048850300543843,0.9205050268880056,0.5156621523829215,0.1023325062034739,0.9152781985256992,0.7650126010254628,0.7970905442688738,0.783321194464676,0.6157569348409664,0.427252213157438,0.3239468348727191
0.2022348415460707,0.7874248640396909,0.912711402073104,0.5294117647058824,0.1032258064516128,0.9010400888619612,0.7519770574432953,0.7771925424295627,0.7697430028092811,0.6068494265028878,0.4233987155007812,0.3198468123451228
0.2070892104781095,0.7828451483637059,0.9048398410100538,0.5291016230745373,0.1108684863523573,0.8934666262748662,0.7510211175806032,0.7680795920073572,0.7618353969410051,0.6027007239892621,0.4226696754035758,0.3201621986933994
0.2183550100751053,0.7912412937696786,0.9021120723248384,0.518246665977463,0.1187096774193548,0.8961930728062202,0.7597983835925958,0.766156675863222,0.7586099261263137,0.6028227446514277,0.4256205519875022,0.3245776075692724
0.2253159919399157,0.7906688293101805,0.8957212999766191,0.514628346945105,0.1264516129032258,0.8916489952539634,0.771182758321022,0.7664910960622021,0.7562688585995214,0.602904091759538,0.4279465370595383,0.3284523541338139
0.2145081516761311,0.7682473046465033,0.8866027589431845,0.5328233226506771,0.1264516129032258,0.8739775825507421,0.7717910836881898,0.7529470780035115,0.7472687545520758,0.5971284470837062,0.4245096337441416,0.3250732146879928
0.2023264334127129,0.7524091212670548,0.8840308627542669,0.5483304042179262,0.1214888337468982,0.8638796324346157,0.765186408273225,0.7332998913134353,0.7325980647175112,0.5878548767591313,0.4176705433084534,0.3185402117594053
0.2037919032789888,0.7546989791050474,0.8847322889876081,0.546262793342293,0.1218858560794044,0.8655962839543572,0.7678804206135396,0.7272803277317949,0.7267714077619395,0.5843162775563329,0.4162124631140427,0.3178193286776301
0.2107528851437992,0.767674840187005,0.8894084638765489,0.5353044557014369,0.1225806451612903,0.8754922750681612,0.7823933258016859,0.7368113034027255,0.7306211632504422,0.5870414056780281,0.4203436903315397,0.3216940752421717
0.2109360688770837,0.774162770727984,0.894552256254384,0.5316861366690788,0.1194044665012406,0.8822579016459658,0.7919527244286086,0.7423292366858958,0.7331703256685049,0.588058244529407,0.4223919458427357,0.3242171660283848
0.2018684740795017,0.7592786947810324,0.889954017613592,0.5448154657293497,0.1175186104218362,0.8713521155205493,0.7879551577300772,0.7347211771591003,0.7274997398813859,0.5837875213536159,0.418816177746919,0.3207929713899526
0.1906942663491481,0.74773399484782,0.8901098901098902,0.5574278920707123,0.11136476426799,0.8653943249520346,0.7808290605718259,0.7214279742496447,0.7173551139319531,0.575571463434475,0.4118382225308106,0.3131786438387024
0.1909690419490749,0.7482110485640684,0.8902657626061881,0.5570143698955856,0.11136476426799,0.8656972634555185,0.7823933258016859,0.7179165621603545,0.7149620226823432,0.5733344179614415,0.4101371289706648,0.3119170984455959
0.2044330463454845,0.7602328022135293,0.8886291013950587,0.5428512353974981,0.1197022332506203,0.8709481975159041,0.7949943512644477,0.7246885711896998,0.7194360628446572,0.5756528105425852,0.4133657351154314,0.3164676728993016
0.1923429199487085,0.7544127468752984,0.8941625750136388,0.5528791481443193,0.1095781637717121,0.8715540745228718,0.8100286781958808,0.7279491681297551,0.7194360628446572,0.5758968518669161,0.4135045998958514,0.317053390403244
0.177779813152592,0.7393378494418472,0.8942405112617878,0.5692132740618215,0.1017369727047146,0.863576693931132,0.8039454245242026,0.7135690995736143,0.7090833420039538,0.5693890832180917,0.4069432390210033,0.3093940076593827
0.1644074006228247,0.731991222211621,0.8996181123840699,0.5807918949653675,0.0910173697270471,0.8631727759264869,0.7919527244286086,0.6946743583312432,0.6998231193424201,0.5611730252989506,0.3992709599027947,0.3010587970263573
0.1666056054222384,0.7377158668066025,0.9024238173174344,0.5764499121265377,0.0904218362282878,0.8680197919822276,0.7922134353002519,0.692082601789148,0.6995630007283322,0.5618238021638331,0.3988196493664295,0.3006983554854697
0.1807107528851438,0.7567026047132909,0.90593094848414,0.5582549364209656,0.0958808933002481,0.8803392911239019,0.7990788215868602,0.7022824178580386,0.7063260846946208,0.5683315708126576,0.4037840652664468,0.3066456409101148
0.1862062648836783,0.7674840187005059,0.9100615696360376,0.5492608291119612,0.0961786600496277,0.8887205897202868,0.8041192317719649,0.7118969985787141,0.7123088128186453,0.5741478890425445,0.4081930220447839,0.311736877675152
0.1752152408866092,0.7540311039022995,0.9084249084249084,0.562700299803577,0.0913151364764267,0.8805412501262244,0.7939515077778744,0.7056266198478388,0.708927270835501,0.5707719840559669,0.4061100503384829,0.3082225726514981
0.1653233192892471,0.7394332601850969,0.9049177772582028,0.5762431510389744,0.0881389578163771,0.8705442795112592,0.7808290605718259,0.6927514421871082,0.7019040682551244,0.5649556658260798,0.4009026210727304,0.3017346249155215
0.1681626671551566,0.7416277072798397,0.9042942872730106,0.5734518763568697,0.0900248138957816,0.8712511360193881,0.7763969757538889,0.6894072401973079,0.7012277598584956,0.5652403807044659,0.4013192154139907,0.3032214462716828
0.1790620992855834,0.7522182997805554,0.9036707972878186,0.5615631138219787,0.0963771712158808,0.8765020700797738,0.7820457113061615,0.6980185603210434,0.7071584642597025,0.5708940047181322,0.406248915118903,0.3104302770894346
0.1820846308847774,0.7553668543077952,0.9036707972878186,0.5581515558771839,0.0980645161290322,0.878117742098354,0.7850004345181194,0.7045397542011538,0.7113723858079285,0.5742699097047099,0.4098941156049297,0.3144852444244199
0.1733834035537644,0.7395286709283466,0.8981373236692385,0.5715910265687997,0.0968734491315136,0.8662021609613249,0.7758755540106023,0.6967644845748683,0.7063260846946208,0.570283901407305,0.408297170630099,0.3112412705564316
0.1635830738230445,0.7269344528193875,0.8961109812173643,0.583996691822599,0.092803970223325,0.8582247803695849,0.7650126010254628,0.6832204665161775,0.6988866923317033,0.5646302773936387,0.4035063357056067,0.3048884883982879
0.1651401355559626,0.7290334891708806,0.8965785987062583,0.5820324614907474,0.0933002481389577,0.8596384933858426,0.7658816372642739,0.6782041635314773,0.6981583602122569,0.5639795005287562,0.4033327547300816,0.303942329353458
0.175123649019967,0.7409598320770919,0.8978255786766424,0.5698335573245116,0.0979652605459056,0.8667070584671311,0.7767445902494133,0.6883203745506228,0.7050775153469983,0.5693484096640364,0.4077069953133136,0.3093940076593827
0.177779813152592,0.7446808510638298,0.8986049411581326,0.5664219993797167,0.0988585607940446,0.8692315459961627,0.7832623620404972,0.6956776189281831,0.7094995317864947,0.5728056617587245,0.41051900711682,0.3131786438387024
0.1688954020882945,0.7334223833603664,0.8969682799470033,0.5774837175643543,0.0951861042183622,0.8622639604160355,0.7753541322673155,0.6878187442521528,0.7044012069503693,0.5687789799072643,0.4074639819475786,0.3092588420815499
0.1602857666239237,0.7226409693731515,0.8954874912321721,0.588235294117647,0.0914143920595533,0.8554983338382308,0.7649256974015816,0.6777025332330072,0.697742170429716,0.5638574798665907,0.4027078632181913,0.3027258391529624
0.1632167063564755,0.7275069172788856,0.8969682799470033,0.5838933112788173,0.0921091811414391,0.8591335958800363,0.7659685408881549,0.6808795251233174,0.698938716054521,0.5647522980558041,0.4026384308279813,0.303041225501239
0.1726506686206264,0.74153229653659,0.90039747486556,0.5709707433061098,0.0949875930521091,0.8687266484903564,0.7790040844703224,0.6955940138784382,0.705649776297992,0.5708940047181322,0.4075334143377886,0.3077269655327777
0.1737497710203333,0.7447762618070795,0.9021120723248384,0.5685929907991316,0.0944913151364764,0.8715540745228718,0.7881289649778395,0.7035364936042137,0.7108521485797524,0.5746766452452615,0.4099635479951398,0.3098896147781032
0.1622091958234108,0.731991222211621,0.9014885823396462,0.5820324614907474,0.0886352357320099,0.864384529940422,0.7821326149300425,0.6962628542763982,0.706690250754344,0.5707719840559669,0.4067002256552682,0.3053840955170083
0.1558893570250961,0.7260757561301403,0.9021120723248384,0.5887521968365553,0.0848635235732009,0.861658083409068,0.7717041800643086,0.6882367695008779,0.7031526376027469,0.5669893435288376,0.4035757680958167,0.3011939626041901
0.1662392379556695,0.7389562064688485,0.9038266697841164,0.576036389951411,0.0893300248138957,0.8695344844996467,0.772747023550882,0.691998996739403,0.7054937051295391,0.5691043683397056,0.4057628883874328,0.3035368326199594
0.1779629968858765,0.753554050186051,0.9056971397396928,0.5614597332781971,0.0944913151364764,0.878521660102999,0.786217085252455,0.709054426887384,0.71589844969306,0.5771577320426259,0.4119770873112308,0.3107006082451002
0.1778714050192343,0.7530769964698026,0.9053853947470968,0.561769874909542,0.0945905707196029,0.8780167625971927,0.794472929521161,0.7182509823593345,0.7227655811049839,0.5812657610021964,0.4151362610657872,0.3140797476909214
0.1691701776882213,0.7407690105905925,0.9027355623100304,0.5733484958130879,0.0916129032258064,0.8698374230031304,0.7883896758494829,0.709806872335089,0.7183955883883051,0.5776864882453429,0.4121159520916508,0.3116017120973192
0.1620260120901264,0.7297013643736285,0.8997739848803679,0.583376408559909,0.0896277915632754,0.8620620014137129,0.7809159641957069,0.7003595017139035,0.7119966704817398,0.5727243146506141,0.4086096163860441,0.3077269655327777
0.1688038102216523,0.7379066882931018,0.9007092198581561,0.5751059650573762,0.0927047146401985,0.8670099969706149,0.786130181628574,0.7006939219128835,0.7119966704817398,0.5725616204343935,0.4097552508245096,0.3089885109258842
0.1769554863528118,0.7444900295773305,0.8992284311433247,0.566938902098625,0.0980645161290322,0.8695344844996467,0.8008168940644824,0.7138199147228493,0.7177192799916763,0.5776458146912877,0.4143377885783718,0.3143050236539761
0.1791536911522256,0.7420093502528385,0.8952536824877251,0.5670422826424066,0.1018362282878411,0.8655962839543572,0.8140262448944121,0.7247721762394449,0.7224534387680782,0.5813064345562515,0.4166637736504079,0.317053390403244
0.1727422604872687,0.7298921858601279,0.8908113163432312,0.5771735759330094,0.1011414392059553,0.8564071493486821,0.8104631963152863,0.7190870328567845,0.7176672562688586,0.5765883022858538,0.4127408436035411,0.3121423744086506
0.166788789155523,0.7232134338326496,0.8904216351024862,0.5842034529101623,0.0981637717121587,0.852569928304554,0.7945598331450422,0.7052085945991138,0.7101758401831235,0.570039860082974,0.4071168199965284,0.3058346474431178
0.1752152408866092,0.7356168304551093,0.8933832125321487,0.5727282125503981,0.1008436724565756,0.8610522064021003,0.7798731207091335,0.7015299724103335,0.7089792945583187,0.5695924509883674,0.4070821038014234,0.3070961928362243
0.1882212859498076,0.7432496899150846,0.8885511651469099,0.5612529721906337,0.1109677419354838,0.8619610219125518,0.777961240983749,0.710642922832539,0.7145978566226199,0.5740258683803791,0.4123936816524909,0.3134489749943681
0.1918849606154973,0.7449670832935789,0.8868365676876315,0.5582549364209656,0.1140446650124069,0.8617590629102292,0.7759624576344833,0.7123150238274392,0.7152741650192488,0.5748800130155374,0.4139559104322167,0.3154764586618607
0.1772302619527385,0.731704989981872,0.8885511651469099,0.5737620179882146,0.1050124069478908,0.8558012723417145,0.7673589988702528,0.7016971825098236,0.7075746540422433,0.570039860082974,0.4096858184342997,0.310024780355936
0.1730170360871954,0.7297967751168782,0.8904995713506352,0.5771735759330094,0.1014392059553349,0.8561042108451984,0.7573650821239245,0.689156425048073,0.6996150244511498,0.5647116245017489,0.4048949835098073,0.3036719981977923
0.1771386700860963,0.7424864039690869,0.8972800249395994,0.56786932699266,0.0994540942928039,0.8672119559729374,0.7629269140523158,0.6894908452470528,0.6993549058370617,0.5651183600423005,0.4052421454608575,0.304798378013066
0.1843744275508334,0.7562255509970424,0.9024238173174344,0.5563940866328957,0.1000496277915632,0.8778148035948702,0.7775267228643434,0.6992726360672185,0.7054937051295391,0.569511103880257,0.4086790487762541,0.3087632349628295
0.1817182634182084,0.7514550138345578,0.900865092354454,0.5604259278403805,0.099652605459057,0.8742805210542258,0.7858694707569305,0.7037873087534486,0.7085110810529602,0.5711380460424632,0.4088873459468842,0.3097995043928813
0.1676131159553031,0.7386699742390994,0.9023458810692851,0.5754161066887212,0.0910173697270471,0.8685246894880339,0.780307638828539,0.6934202825850682,0.7007595463531371,0.5639795005287562,0.4027425794132963,0.3029511151160171
0.1612932771569884,0.7300830073466273,0.9007092198581561,0.5835831696474723,0.0886352357320099,0.8628698374230032,0.775006517771791,0.6813811554217875,0.6919155134741443,0.555966810379891,0.3970491234160736,0.2957422842982654
0.1652317274226048,0.7318004007251216,0.8987608136544307,0.5803783727902408,0.0920099255583126,0.8625668989195192,0.7822195185539237,0.6838893069141376,0.6931640828217668,0.5566175872447734,0.3972921367818087,0.2965532777652624
0.1691701776882213,0.7424864039690869,0.9041384147767126,0.5724180709190531,0.0907196029776674,0.871655054024033,0.7969062309898323,0.6978513502215534,0.6995630007283322,0.5617831286097779,0.4015275125846207,0.3015994593376886
0.1710936068877083,0.745253315523328,0.9047619047619048,0.5698335573245116,0.0914143920595533,0.873573664546097,0.8000347614495523,0.7016135774600787,0.7009676412444075,0.562596599690881,0.402082971706301,0.3024104528046857
0.1575380106246565,0.7302738288331266,0.9040604785285636,0.5856507805231056,0.0844665012406947,0.8650913864485509,0.7931693751629443,0.6907449209932279,0.6942045572781188,0.5563735459204425,0.3967366776601285,0.2972291056544267
0.1449899248946693,0.7222593264001527,0.9081910996804614,0.5970226403390881,0.0750372208436724,0.863576693931132,0.777961240983749,0.6765320625365772,0.6855686192903965,0.5497030830553974,0.3919805589307412,0.2913719306150034
0.1547902546253892,0.7371434023471043,0.9120099758397632,0.583376408559909,0.0779156327543424,0.8739775825507421,0.7719648909359521,0.6723518100493269,0.6846842160024972,0.5507199219067762,0.3933692067349419,0.2926785312007209
0.1654149111558893,0.7531724072130522,0.9160626607435118,0.568799751886695,0.081091811414392,0.8850853276784812,0.7792647953419657,0.6828860463171976,0.6904588492352514,0.5560074839339462,0.398021176879014,0.2984906510475332
0.1624839714233376,0.7448716725503292,0.911776167095316,0.5748992039698129,0.0821836228287841,0.8779157830960315,0.7814373859389937,0.689156425048073,0.6916553948600562,0.5563735459204425,0.3994098246832147,0.2996620860554179
0.1492031507602124,0.7253124701841428,0.9070999922063752,0.5929907991316035,0.0780148883374689,0.8644855094415832,0.771182758321022,0.6758632221386172,0.6839038601602332,0.5514113723257138,0.3942023954174623,0.2931290831268303
0.1439824143616047,0.7227363801164012,0.9094380796508456,0.5973327819704332,0.0737468982630272,0.8646874684439058,0.7535413226731554,0.6570520859459912,0.6742274477161586,0.5444968681363377,0.3881964936642945,0.2876323496282946
0.1510349880930573,0.7333269726171168,0.912087912087912,0.5876150108549572,0.0758312655086848,0.8719579925275169,0.7500651777179108,0.654794749602876,0.673395068151077,0.5451476450012201,0.389446276688075,0.2902004956071187
0.1609269096904194,0.7459211907260759,0.9139583820434884,0.5752093456011579,0.0799999999999999,0.8798343936180956,0.7587555401060223,0.6620683889306913,0.6787535116012903,0.5494997152851215,0.3933692067349419,0.2952917323721559
0.1586371130243634,0.7420093502528385,0.912711402073104,0.5786209035459526,0.0795037220843672,0.8769059880844188,0.7591031546015469,0.6633224646768665,0.6807824367911768,0.5512080045554381,0.3951744488804027,0.297814823158369
0.1437076387616779,0.7252170594408931,0.911698230847167,0.5960922154450532,0.0721588089330024,0.86741391497526,0.7470235508820717,0.6523702031602708,0.6730829258141714,0.5465305458390954,0.3919805589307412,0.2930389727416085
0.134273676497527,0.719397004102662,0.9148936170212764,0.6046728005789311,0.0649131513647642,0.8664041199636473,0.7365951160163379,0.6394950254995402,0.6649672250546249,0.5400227771902709,0.3868772782503037,0.2877224600135166
0.1414178420956219,0.7337086155901155,0.9205050268880056,0.5927840380440401,0.0652109181141439,0.8776128445925476,0.7387677066133658,0.6399966557980102,0.6660597232337946,0.5394940209875538,0.3871202916160389,0.2870916873169633
0.1530500091591866,0.7461120122125753,0.9208167718806016,0.5795513284399876,0.07136476426799,0.8843784711703524,0.749456852350743,0.6526210183095059,0.6725626885859952,0.544008785487676,0.3918764103454261,0.2927686415859428
0.1538743359589668,0.7428680469420857,0.917465513210194,0.5808952755091491,0.0739454094292803,0.880440270625063,0.7553662987746589,0.6572192960454811,0.6751638747268754,0.5459204425282681,0.3929526123936817,0.2945708492903807
0.1437992306283202,0.7255987024138919,0.9120099758397632,0.59588545435749,0.0719602977667493,0.867817832979905,0.7472842617537151,0.6489423961207257,0.6693372177713037,0.5416903929065322,0.3884047908349245,0.2901554404145077
0.1353727788972339,0.7168209140349203,0.911932039591614,0.6053964643854027,0.067394540942928,0.8631727759264869,0.7398105500999391,0.6388261851015801,0.6640307980439081,0.5375416903929066,0.3843429960076376,0.2856499211534129
0.1436160468950357,0.7257895239003913,0.9123217208323592,0.59588545435749,0.0716625310173697,0.8681207714833888,0.7425914660641347,0.6436752779867904,0.6654354385599834,0.5385992027983405,0.3854191980558931,0.2859653075016896
0.1557977651584539,0.7401011353878447,0.9135687008027432,0.5812054171404941,0.0774193548387096,0.8765020700797738,0.7570174676284002,0.657971741493186,0.6723545936947248,0.5443748474741723,0.3901406005901753,0.29168731696328
0.1581791536911522,0.7380975097796012,0.9099056971397398,0.5809986560529309,0.081091811414392,0.8730687670402907,0.7684018423568262,0.6631552545773765,0.6760482780147749,0.5478320995688604,0.3921888561013713,0.2944356837125478
0.1474629052940098,0.7215914511974049,0.9055412672433948,0.5959888349012715,0.0780148883374689,0.8615571039079066,0.7636221430433648,0.6540423041551711,0.6715222141296432,0.5442528268120068,0.3890643985419198,0.2901103852218968
0.1440740062282469,0.7136723595076806,0.9019561998285404,0.6021916675281712,0.0785111662531017,0.8549934363324245,0.7572781785000434,0.6477719254242956,0.6675684111955053,0.540592206947043,0.3863912515188335,0.2860103626943005
0.1526836416926177,0.7262665776166397,0.904995713506352,0.5905096660808437,0.0811910669975185,0.8636776734322932,0.7648387937777005,0.655296379901346,0.6716262615752784,0.5438054177174001,0.3879881964936643,0.2883982879026808
0.1628503388899065,0.7378112775498521,0.9056971397396928,0.578517523002171,0.0863523573200992,0.8701403615066141,0.7833492656643781,0.6726026251985621,0.6809385079596296,0.5507605954608314,0.3933692067349419,0.2952917323721559
0.1606521340904927,0.7259803453868906,0.8979035149247915,0.5861676832420138,0.0901240694789081,0.8588306573765526,0.79516815851221,0.6797090544268872,0.6848923108937677,0.5534857235825267,0.3948620031244576,0.2976346023879252
0.1500274775599926,0.7040358744394619,0.8889408463876548,0.6040525173162411,0.0900248138957816,0.8414621831768151,0.7927348570435387,0.6701780787559568,0.6776610134221206,0.5472626698120882,0.3897240062489152,0.2911466546519486
0.1472797215607254,0.6974525331552334,0.8859792689579923,0.6092215445053241,0.0904218362282878,0.8360092901141069,0.7891718084644128,0.6598110525875763,0.6701695973363855,0.5409175953794843,0.3848984551293178,0.2851543140346925
0.1564389082249496,0.705848678561206,0.8851219702283531,0.5994003928460664,0.0959801488833746,0.839947490659396,0.794472929521161,0.6648273555722766,0.6739153053792529,0.5436020499471244,0.3881270612740844,0.2887136742509574
0.1669719728888074,0.7199694685621602,0.8876159301691217,0.5858575416106688,0.1000496277915632,0.84903564576391,0.8052489788824194,0.6787893988796924,0.683383622932057,0.5508012690148866,0.3944454087831974,0.2967785537283172
0.1632167063564755,0.720637343764908,0.8913568700802742,0.5876150108549572,0.095682382133995,0.851762092295264,0.808725123837664,0.6854778028592927,0.6860888565185725,0.5538924591230782,0.3969796910258636,0.2991214237440865
0.1511265799596995,0.7110008586966893,0.8937728937728937,0.5997105344774113,0.0875434243176178,0.8482278097546198,0.7987312070913357,0.6749435665914222,0.6792737488294663,0.548808264866184,0.3928831800034716,0.2947961252534354
0.1442571899615314,0.7101421620074421,0.8989166861507286,0.6039491367724594,0.0805955334987592,0.8511562152882963,0.7865646997479795,0.6650781707215117,0.6739153053792529,0.5440494590417311,0.3884047908349245,0.289930164451453
0.1521340904927642,0.7240721305218968,0.9035928610396696,0.5919569936937868,0.0817866004962779,0.8615571039079066,0.7854349526375249,0.6685895828108017,0.6770887524711269,0.5459204425282681,0.3907654921020657,0.2918224825411128
0.1617512364901996,0.7399103139013453,0.9083469721767594,0.5780006202832627,0.0840694789081886,0.8729677875391295,0.7874337359867907,0.675361591840147,0.6837998127145979,0.5516554136500448,0.3952785974657178,0.2967785537283172
0.1578127862245832,0.7377158668066025,0.9099056971397398,0.5814121782280575,0.0808933002481389,0.8728668080379683,0.7850004345181194,0.6754451968898921,0.6847362397253147,0.5527129260554787,0.3959729213678181,0.2986258166253661
0.1464553947609452,0.7224501478866521,0.9070999922063752,0.5960922154450532,0.0765260545905707,0.8629708169241643,0.7710958546971408,0.6628208343783965,0.6769326813026741,0.5468559342715367,0.3908002082971706,0.2933543590898851
0.1406851071624839,0.7156759851159241,0.9064765022211828,0.6030187118784245,0.0738461538461538,0.8589316368777138,0.7611888415746936,0.6520357829612908,0.6713141192383727,0.5415683722443667,0.3863565353237285,0.2872268528947961
0.1466385784942297,0.7240721305218968,0.9082690359286104,0.5950584100072366,0.0758312655086848,0.8645864889427446,0.7663161553836795,0.654376724354151,0.6727707834772657,0.5421378020011389,0.3877104669328242,0.2888938950214012
0.1527752335592599,0.7389562064688485,0.9152053620138726,0.5835831696474723,0.0748387096774193,0.87700696758558,0.7777005301121056,0.6648273555722766,0.6776089896993029,0.5456764012039372,0.3905571949314355,0.2937148006307727
0.1480124564938633,0.7355214197118596,0.9164523419842568,0.5881319135738654,0.07136476426799,0.8758961930728061,0.7829147475449726,0.6671682969651367,0.6786494641556551,0.5474253640283088,0.3912168026384308,0.2947060148682136
0.1362886975636563,0.7223547371434024,0.9156729795027666,0.6018815258968262,0.0656079404466501,0.8684237099868727,0.7730946380464065,0.655965220299306,0.6721464988034545,0.5420564548930286,0.3866689810796737,0.2894796125253435
0.1343652683641692,0.7222593264001527,0.917309640713896,0.6030187118784245,0.0634243176178659,0.8694335049984853,0.7644042756582949,0.6481899506730207,0.6671522214129644,0.5383144879199544,0.383093212983857,0.2842532101824735
0.1463638028943029,0.7343764907928634,0.916919959473151,0.5896826217305903,0.070272952853598,0.8755932545693224,0.769705396715043,0.6583897667419113,0.671938403912184,0.5416497193524771,0.3859052247873634,0.2879927911691822
0.1541491115588935,0.742772636198836,0.917153768217598,0.5807918949653675,0.0743424317617866,0.8802383116227405,0.7837837837837838,0.673438675696012,0.6806783893455416,0.5488489384202392,0.391494532199271,0.2945708492903807
0.1481040483605055,0.7348535445091118,0.9157509157509156,0.5884420552052103,0.0718610421836228,0.8751893365646772,0.7893456157121751,0.6776189281832623,0.68353969410051,0.5518181078662654,0.3941329630272522,0.2969587744987609
0.1377541674299322,0.7212098082244062,0.9134907645545944,0.6016747648092629,0.0676923076923076,0.8665050994648086,0.7754410358911967,0.6654961959702365,0.6763604203516804,0.5475880582445294,0.3903488977608054,0.2912367650371705
0.1328997984978933,0.719397004102662,0.9162185332398096,0.6053964643854027,0.0633250620347394,0.8672119559729374,0.7624054923090292,0.654878354652621,0.6696493601082094,0.5429919466362971,0.3871202916160389,0.2867763009686866
0.1414178420956219,0.7351397767388609,0.92175200685839,0.5920603742375685,0.0644168734491315,0.8792285166111279,0.7626662031806726,0.6578881364434411,0.671938403912184,0.5449442772309444,0.3881964936642945,0.2880829015544042
0.1508518043597728,0.7490697452533156,0.9251032655287974,0.5792411868086426,0.0674937965260546,0.8887205897202868,0.7709220474493786,0.6646601454727865,0.6772968473623974,0.5492150004067355,0.3919805589307412,0.2932191935120523
0.149019967026928,0.7435359221448335,0.922219624347284,0.5832730280161273,0.0682878411910669,0.8839745531657073,0.7717041800643086,0.6649945656717665,0.6774529185308501,0.549865777271618,0.3930914771741017,0.2952466771795449
0.1378457592965744,0.727697738765385,0.9187124931805782,0.5980564457769048,0.0644168734491315,0.8732707260426132,0.758494829234379,0.6513669425633308,0.669441265216939,0.5442121532579517,0.3889255337614997,0.2900653300292858
0.1322586554313976,0.7217822726839043,0.9186345569324292,0.6044660394913678,0.0614392059553349,0.8701403615066141,0.7460676110193795,0.6387425800518352,0.6618978254083863,0.5372976490685756,0.3844818607880577,0.2840279342194188
0.140318739695915,0.7342810800496137,0.9219858156028368,0.5931975602191668,0.0637220843672456,0.8789255781076442,0.7503258885895542,0.6425884123401053,0.6640307980439081,0.5389245912307817,0.3857663600069433,0.2862806938499662
0.1498442938267081,0.745253315523328,0.922921050580625,0.581825700403184,0.0682878411910669,0.8852872866808038,0.7613626488224559,0.6552127748516011,0.6709499531786495,0.5448629301228342,0.3905919111265405,0.2927686415859428
0.1448983330280271,0.7399103139013453,0.9226093055880292,0.5875116303111755,0.0658064516129032,0.8822579016459658,0.7635352394194836,0.6583061616921662,0.6731349495369889,0.5463271780688196,0.3905224787363305,0.2938950214012165
0.1362886975636563,0.7257895239003913,0.9184786844361312,0.6000206761087563,0.0638213399503722,0.8720589720286781,0.7538889371686798,0.6491096062202156,0.6683487670377692,0.5414056780281461,0.3856969276167332,0.2882180671322369
0.1378457592965744,0.7231180230893999,0.9149715532694256,0.6005375788276647,0.0667990074441687,0.8684237099868727,0.7459807073954984,0.6418359668924003,0.6633544896472792,0.5374196697307411,0.383093212983857,0.284703762108583
0.1470049459607987,0.7300830073466273,0.9127893383212532,0.5916468520624418,0.0731513647642679,0.8707462385135818,0.753280611801512,0.6513669425633308,0.6690250754343982,0.5413243309200357,0.3870161430307238,0.2892543365622888
0.1587287048910056,0.7380975097796012,0.9095160158989946,0.5806885144215859,0.0816873449131513,0.872765828536807,0.767445902494134,0.6668338767661568,0.678129226927479,0.5488896119742943,0.3934039229300469,0.2963730569948186
0.1579043780912254,0.7331361511306174,0.906086820980438,0.5838933112788173,0.0833746898263027,0.8679188124810663,0.7736160597896933,0.6726026251985621,0.6802621995630008,0.5510453103392174,0.3950355840999827,0.2983104302770894
0.1481956402271478,0.7162484495754222,0.9005533473618579,0.5984699679520313,0.0815880893300247,0.8554983338382308,0.7663161553836795,0.6645765404230416,0.6750078035584227,0.5462458309607093,0.3909737892726957,0.2933543590898851
0.1469133540941564,0.7133861272779316,0.8993063673914738,0.6007443399152279,0.0816873449131513,0.8531758053115217,0.7618840705657425,0.6594766323885962,0.669961502445115,0.5416090457984218,0.3876410345426141,0.2882631223248479
0.1581791536911522,0.723404255319149,0.8979035149247915,0.5889589579241186,0.0887344913151364,0.8575179238614561,0.7702268184583296,0.6689240030097818,0.6755280407865987,0.545879768974213,0.3908696406873806,0.2925884208154989
0.1711851987543506,0.7307508825493751,0.8928376587951057,0.5775870981081361,0.0990570719602977,0.8581238008684238,0.7837837837837838,0.6820499958197475,0.684580168556862,0.5513706987716587,0.3955910432216629,0.3001126379815274
0.1670635647554497,0.7202557007919093,0.8877718026654197,0.5856507805231056,0.0999503722084367,0.8493385842673937,0.7882158686017207,0.6837220968146476,0.6854125481219436,0.5505572276905556,0.3960423537580281,0.2998873620184726
0.1599193991573548,0.7076614826829501,0.8835632452653729,0.5965057376201798,0.0987593052109181,0.839947490659396,0.7799600243330147,0.672435415099072,0.6782852980959319,0.5462865045147645,0.3910085054678008,0.2928136967785537
0.1612016852903462,0.708329357885698,0.8830176915283298,0.5954719321823633,0.0998511166253101,0.839947490659396,0.77570174676284,0.6671682969651367,0.6754239933409636,0.5437240706092898,0.3884742232251346,0.2901554404145077
0.1677962996885876,0.7236904875488981,0.889954017613592,0.583376408559909,0.0990570719602977,0.8524689488033929,0.7887372903450073,0.6779533483822423,0.6831755280407867,0.5479134466769706,0.3926401666377365,0.2947510700608245
0.1698113207547169,0.7345673122793628,0.8971241524433013,0.5763465315827562,0.0955831265508684,0.8628698374230032,0.8090727383331884,0.692082601789148,0.6928519404848611,0.55438054177174,0.398021176879014,0.3003829691371931
0.160743725957135,0.7305600610628757,0.9014885823396462,0.583686550191254,0.0878411910669975,0.8636776734322932,0.8170678717302511,0.6940891229830283,0.6944126521693893,0.5555600748393394,0.3981947578545391,0.301239017796801
0.1458142516944495,0.7170117355214197,0.9032031797989244,0.5994003928460664,0.0787096774193548,0.8575179238614561,0.810984618058573,0.6803778948248475,0.6859327853501197,0.5497030830553974,0.3929873285887867,0.2942104077494931
0.1411430664956951,0.7132907165346819,0.9041384147767126,0.6040525173162411,0.0755334987593052,0.8562051903463597,0.8040323281480838,0.6687567929102918,0.676412444074498,0.5433986821768486,0.3885783718104496,0.2893895021401216
0.1492031507602124,0.7255987024138919,0.9073338009508222,0.5927840380440401,0.0779156327543424,0.8647884479450672,0.8035978100286782,0.6688403979600368,0.6763083966288629,0.5447409094606687,0.3903836139559105,0.2923631448524442
0.154698662758747,0.7371434023471043,0.912087912087912,0.5834797891036907,0.0778163771712158,0.8739775825507421,0.7985573998435734,0.672268204999582,0.6808864842368121,0.5486455706499634,0.3945842735636174,0.2975444920027033
0.148653599560359,0.7328499189008683,0.9137245732990412,0.5892690995554636,0.0734491315136476,0.872765828536807,0.7820457113061615,0.6655798010199816,0.6780251794818438,0.5481168144472464,0.3946189897587225,0.2972741608470376
0.1394944128961348,0.7166300925484209,0.9082690359286104,0.603122092422206,0.0720595533498759,0.8606482883974552,0.7629269140523158,0.6525374132597609,0.6707418582873791,0.543480029284959,0.3904183301510154,0.2929038071637756
0.139586004762777,0.7197786470756607,0.9107629958693788,0.6013646231779178,0.070471464019851,0.8639806119357769,0.7529329973059876,0.6464342446283755,0.6684528144834045,0.5408362482713739,0.3885089394202395,0.2905158819553953
0.1497527019600659,0.7385745634958497,0.917465513210194,0.5854440194355423,0.0717617866004962,0.8782187215995153,0.7604067089597636,0.6570520859459912,0.6740193528248882,0.5449442772309444,0.3920499913209513,0.2946159044829916
0.1567136838248763,0.7513596030913081,0.9219858156028368,0.5745890623384678,0.0726550868486352,0.8879127537109966,0.7713565655687843,0.6700108686564669,0.6802621995630008,0.5496217359472871,0.3952785974657178,0.2998873620184726
0.1519509067594797,0.7446808510638298,0.9205829631361546,0.5808952755091491,0.0708684863523572,0.883469655659901,0.7714434691926653,0.6690912131092718,0.6795858911663719,0.548808264866184,0.3951397326852977,0.2996170308628069
0.1416926176955486,0.727697738765385,0.9154391707583196,0.59588545435749,0.0686848635235731,0.8711501565182267,0.7604067089597636,0.6532898587074659,0.6722505462490896,0.5442121532579517,0.3906613435167506,0.2939851317864383
0.1387616779629968,0.7228317908596508,0.9139583820434884,0.6002274371963197,0.0679900744416873,0.8676158739775826,0.7548448770313722,0.6444277234344954,0.666944126521694,0.5403481656227122,0.3869814268356188,0.2901554404145077
0.1473713134273676,0.7382883312661006,0.9192580469176214,0.5869947275922671,0.0692803970223324,0.8792285166111279,0.7571043712522811,0.6486079759217457,0.6701695973363855,0.542178475555194,0.3885089394202395,0.2924983104302771
0.1525004579593331,0.7488789237668162,0.923622476813966,0.5784141424583893,0.0692803970223324,0.8876098152075128,0.7652733118971061,0.6586405818911463,0.6766205389657685,0.5470186284877573,0.3927790314181565,0.2968236089209281
0.1468217622275141,0.7428680469420857,0.9235445405658173,0.5848237361728522,0.0662034739454094,0.8844794506715136,0.7648387937777005,0.6573029010952262,0.6743835188846115,0.545351012771496,0.3916681131747961,0.2945708492903807
0.1402271478292727,0.7268390420761378,0.9160626607435118,0.5972294014266515,0.0674937965260546,0.8710491770170655,0.7524115755627009,0.6435916729370454,0.6665799604619708,0.5396567152037746,0.3869467106405138,0.2884883982879027
0.1385784942297123,0.7232134338326496,0.9143480632842336,0.600124056652538,0.0675930521091811,0.8681207714833888,0.7491092378552185,0.63799013460413,0.6634065133700968,0.5369722606361343,0.3849678875195279,0.2859202523090786
0.1505770287598461,0.7379066882931018,0.9162185332398096,0.5854440194355423,0.0729528535980148,0.87700696758558,0.7568436603806379,0.6474375052253156,0.6691291228800333,0.5409175953794843,0.3885436556153446,0.289975219644064
0.1589118886242901,0.7457303692395765,0.9155171070064688,0.5764499121265377,0.0779156327543424,0.880743209128547,0.7676197097418962,0.6597274475378312,0.6762563729060452,0.5467339136093712,0.3935427877104669,0.2967785537283172
0.1552482139586004,0.7348535445091118,0.9097498246434416,0.5844102139977256,0.0796029776674937,0.8712511360193881,0.7710089510732597,0.6598946576373212,0.6766725626885861,0.5483608557715773,0.3945148411734074,0.2976346023879252
0.1435244550283934,0.7223547371434024,0.9095160158989946,0.5978496846893415,0.0734491315136476,0.8644855094415832,0.7597114799687147,0.6495276314689408,0.6696493601082094,0.5426665582038558,0.3901406005901753,0.2924532552376661
0.1405935152958417,0.7202557007919093,0.9103733146286338,0.6005375788276647,0.0712655086848635,0.8639806119357769,0.7514556357000087,0.6410835214446953,0.6649672250546249,0.5381111201496787,0.3869119944454088,0.2882180671322369
0.1485620076937167,0.7288426676843813,0.9105291871249316,0.5914400909748785,0.0754342431761786,0.8686256689891952,0.757625792995568,0.6495276314689408,0.6685048382062221,0.5415683722443667,0.3902447491754904,0.2933093038972741
0.1555229895585271,0.7371434023471043,0.9113864858545708,0.5829628863847824,0.0787096774193548,0.873573664546097,0.7702268184583296,0.6622355990301814,0.6745395900530642,0.5480354673391361,0.3955216108314529,0.2998873620184726
0.1501190694266349,0.72922431065738,0.9095160158989946,0.5903029049932803,0.0770223325062034,0.8681207714833888,0.7706613365777353,0.6614831535824763,0.6751118510040579,0.5481168144472464,0.3959034889776081,0.2990313133588646
0.1383953104964279,0.711096269439939,0.9046839685137558,0.6068437919983459,0.0736476426799007,0.8553973543370694,0.759190058225428,0.6482735557227657,0.6670481739673291,0.5425852110957455,0.3901753167852804,0.2929038071637756
0.1371130243634365,0.7080431256559488,0.9032811160470734,0.6092215445053241,0.0738461538461538,0.852872866808038,0.7518032501955331,0.6423375971908702,0.663250442201644,0.5383551614740095,0.3868425620551988,0.2902004956071187
0.14828723209379,0.7237858982921478,0.9066323747174811,0.594334746200765,0.0778163771712158,0.8633747349288095,0.7566698531328756,0.6489423961207257,0.6673082925814172,0.5403481656227122,0.3901753167852804,0.2929038071637756
0.1589118886242901,0.7321820436981205,0.9044501597693088,0.5837899307350356,0.0849627791563275,0.8664041199636473,0.7692708785956374,0.6622355990301814,0.6742794714389762,0.5460831367444887,0.3947231383440375,0.2989862581662536
0.1558893570250961,0.7144356454536781,0.8925259138025096,0.5951617905510184,0.0909181141439205,0.8492376047662323,0.7724863126792387,0.6645765404230416,0.6751638747268754,0.5469372813796469,0.3946189897587225,0.2996170308628069
0.1481040483605055,0.7029863562637153,0.8897202088691449,0.6057066060167476,0.0885359801488833,0.8414621831768151,0.7604936125836448,0.6531226486079759,0.6675163874726876,0.5409175953794843,0.3897587224440202,0.2924532552376661
0.1454478842278805,0.7034634099799637,0.8924479775543604,0.6069471725421276,0.0852605459057071,0.8434817732000403,0.7545841661597289,0.6462670345288855,0.6641348454895433,0.5380704465956235,0.3870855754209339,0.2887136742509574
0.1586371130243634,0.718442896670165,0.8934611487802977,0.5914400909748785,0.0918114143920595,0.8520650307987477,0.7642304684105327,0.6599782626870663,0.6718863801893664,0.5434393557309037,0.3913209512237459,0.2952917323721559
0.1677962996885876,0.7279839709951341,0.8934611487802977,0.5809986560529309,0.096774193548387,0.8570130263556498,0.7748327105240289,0.6783713736309673,0.6816148163562585,0.550923289677052,0.3976045825377539,0.3029961703086281
0.1619344202234841,0.722163915656903,0.8936949575247447,0.5875116303111755,0.0934987593052109,0.8540846208219731,0.7753541322673155,0.6802106847253574,0.6823951721985225,0.5513706987716587,0.3976740149279639,0.302185176841631
0.1492947426268547,0.7124320198454346,0.8965006624581092,0.5999172955649746,0.0848635235732009,0.8507522972836514,0.7698792039628052,0.6690912131092718,0.6758922068463219,0.5458390954201578,0.3927095990279465,0.2956071187204325
0.1470965378274409,0.7223547371434024,0.9064765022211828,0.5957820738137082,0.0772208436724565,0.8625668989195192,0.7657078300165117,0.6608143131845163,0.6735511393195297,0.5433986821768486,0.3900364520048603,0.2927235863933318
0.1557977651584539,0.7434405114015838,0.9162964694879588,0.5794479478962059,0.0757320099255582,0.8800363526204181,0.7762231685061266,0.6694256333082519,0.680366247008636,0.5499471243797283,0.3951397326852977,0.2994818652849741
0.1617512364901996,0.753554050186051,0.9194918556620684,0.5705572211309832,0.0769230769230769,0.8875088357063515,0.7909098809420353,0.6798762645263775,0.6881177817084592,0.5560888310420564,0.4003124457559451,0.3057895922505068
0.1571716431580875,0.7517412460643069,0.9219078793546878,0.5741755401633413,0.0728535980148883,0.8880137332121579,0.7887372903450073,0.6765320625365772,0.6866611174695662,0.5548686244204019,0.3997569866342649,0.3049785987835098
0.1481040483605055,0.7429634576853354,0.922375496843582,0.583996691822599,0.0676923076923076,0.8837725941633847,0.7722256018075954,0.6654125909204915,0.6784933929872022,0.550150492150004,0.395799340392293,0.3000675827889164
0.151676131159553,0.7456349584963269,0.921596134362092,0.5805851338778042,0.0701736972704714,0.884580430172675,0.7611019379508126,0.6598110525875763,0.6770887524711269,0.5479134466769706,0.3942371116125673,0.297814823158369
0.1564389082249496,0.7576567121457877,0.9273634167251188,0.5713842654812363,0.0689826302729528,0.8947793597899625,0.7672720952463717,0.6658306161692166,0.6818229112475289,0.5511266574473277,0.3971879881964937,0.302230232034242
0.1621176039567686,0.7622364278217728,0.9263502454991815,0.5656983355732451,0.0727543424317617,0.8964960113097041,0.775006517771791,0.675110776690912,0.6870252835292894,0.5563735459204425,0.4013539316090956,0.3076819103401667
0.1568052756915186,0.755748497280794,0.9255708830176916,0.5722113098314897,0.0703722084367245,0.8925578107644148,0.766750673503085,0.6677535323133517,0.6835917178233275,0.5549499715285121,0.4006596077069953,0.3059247578283397
0.1481040483605055,0.741246064306841,0.9210505806250489,0.5850304972604156,0.0684863523573201,0.8819549631424821,0.7489354306074563,0.6524538082100159,0.6743835188846115,0.5478320995688604,0.3947925707342475,0.2990313133588646
0.145631067961165,0.7380975097796012,0.9205829631361546,0.5881319135738654,0.0674937965260546,0.8800363526204181,0.7419831406969671,0.6454309840314355,0.669961502445115,0.5436020499471244,0.3925013018573164,0.2965082225726515
0.1503022531599194,0.7517412460643069,0.927753097965864,0.5781040008270444,0.0655086848635235,0.8918509542562859,0.7520639610671765,0.6537914890059359,0.6757881594006868,0.5472626698120882,0.3967366776601285,0.301329128182023
0.1584539292910789,0.7609006774162771,0.928220715454758,0.5684896102553499,0.0695781637717121,0.8970009088155104,0.7608412270791691,0.6619847838809464,0.6805743418999064,0.5516147400959895,0.4004165943412602,0.3061500337913944
0.1515845392929107,0.7469707089018225,0.922765178084327,0.5799648506151143,0.0692803970223324,0.8860951226900938,0.7565829495089945,0.655296379901346,0.6769847050254917,0.5484422028796876,0.3977434473181739,0.3034917774273485
0.1412346583623374,0.7251216486976434,0.9137245732990412,0.5975395430579965,0.0694789081885856,0.8687266484903564,0.7458069001477361,0.6427556224395954,0.6687129330974925,0.5432766615146832,0.3926401666377365,0.2964631673800405
0.1415094339622641,0.7259803453868906,0.9141921907879356,0.5970226403390881,0.069379652605459,0.8694335049984853,0.742765273311897,0.637404899255915,0.6651753199458954,0.5404295127308224,0.3897240062489152,0.2933994142824961
0.1517677230261952,0.7404827783608434,0.917231704465747,0.583376408559909,0.0729528535980148,0.8790265576088053,0.7539758407925611,0.6472702951258256,0.671938403912184,0.5436020499471244,0.3927790314181565,0.2980400991214237
0.159644623557428,0.7467798874153231,0.9157509157509156,0.5755194872325028,0.078213399503722,0.8814500656366758,0.7662292517597984,0.6603962879357913,0.6790656539381958,0.5492150004067355,0.3983683388300642,0.3040324397386799
0.1540575196922513,0.7377158668066025,0.9131010833138492,0.5835831696474723,0.0768238213399503,0.8748863980611935,0.7650126010254628,0.6583897667419113,0.6774008948080326,0.5487269177580737,0.3971532720013887,0.3026807839603514
0.1427917200952555,0.720637343764908,0.9087366534175044,0.599193631758503,0.0734491315136476,0.8630717964253255,0.7558877205179455,0.6457654042304155,0.6697534075538446,0.5435613763930692,0.391425099809061,0.2962378914169858
0.1451731086279538,0.7193015933594124,0.905619203491544,0.5984699679520313,0.0768238213399503,0.8603453498939715,0.7531068045537499,0.6416687567929102,0.6660597232337946,0.5410396160416497,0.3897240062489152,0.2938950214012165
0.1561641326250228,0.7336132048468658,0.9079572909360144,0.584616975085289,0.0811910669975185,0.8694335049984853,0.7633614321717216,0.6525374132597609,0.6715222141296432,0.5452289921093305,0.393577503905572,0.2980400991214237
0.1606521340904927,0.7367617593741056,0.906788247213779,0.5802749922464593,0.0844665012406947,0.8703423205089367,0.7781350482315113,0.6662486414179417,0.6809385079596296,0.5511673310013829,0.3982294740496442,0.3043027708943455
0.1525920498259754,0.7248354164678943,0.9038266697841164,0.5913367104310968,0.081985111662531,0.8620620014137129,0.780307638828539,0.6670846919153918,0.680106128394548,0.5506792483527211,0.397812879708384,0.3035368326199594
0.1433412712951089,0.7123366091021849,0.9014885823396462,0.6033288535097694,0.0784119106699751,0.8539836413208117,0.770487529329973,0.654543934453641,0.6723025699719072,0.5449036036768893,0.3923624370768964,0.2969587744987609
0.1444403736948158,0.7136723595076806,0.901644454835944,0.601984906440608,0.0789081885856079,0.854791477330102,0.7681411314851829,0.6510325223643507,0.6701695973363855,0.5431139672984625,0.3903141815657004,0.2943455733273259
0.1564389082249496,0.7270298635626372,0.9023458810692851,0.5880285330300837,0.0849627791563275,0.8622639604160355,0.7811766750673502,0.6634060697266114,0.6770887524711269,0.5478727731229155,0.3943065440027773,0.3006533002928587
0.1612932771569884,0.7338040263333652,0.9037487335359676,0.5815155587718391,0.0867493796526054,0.8668080379682924,0.7916051099330841,0.672937045397542,0.683383622932057,0.5526722525014236,0.3976740149279639,0.3044379364721784
0.1538743359589668,0.722163915656903,0.9005533473618579,0.5920603742375685,0.0847642679900744,0.8585277188730687,0.7891718084644128,0.6689240030097818,0.6804702944542712,0.5500284714878386,0.3958687727825031,0.3015093489524668
0.1451731086279538,0.7042266959259613,0.8933052762839997,0.6066370309107826,0.0845657568238213,0.8443905887104917,0.7783088554792734,0.6575537162444612,0.6719904276350016,0.5432766615146832,0.3903141815657004,0.2950664564091012
0.1419673932954753,0.70155519511497,0.8937728937728937,0.6099452083117957,0.0825806451612903,0.8432798141977177,0.7764838793777701,0.654627539503386,0.6700655498907503,0.5405108598389328,0.3888213851761847,0.292543365622888
0.1526836416926177,0.7172979677511688,0.8975917699321954,0.5953685516385816,0.085955334987593,0.8540846208219731,0.7870861214912661,0.6664994565671767,0.6787014878784726,0.5475880582445294,0.3942718278076723,0.2988060373958098
0.1581791536911522,0.7260757561301403,0.9000857298729639,0.5875116303111755,0.0873449131513647,0.8603453498939715,0.7989050143390979,0.6819663907700025,0.6879617105400063,0.5552753599609535,0.3995486894636348,0.305699481865285
0.1494779263601392,0.7161530388321725,0.8993063673914738,0.5978496846893415,0.083076923076923,0.8545895183277794,0.7979490744764056,0.6801270796756125,0.6880137342628239,0.5553160335150086,0.3987502169762194,0.3046632124352331
0.1379373511632167,0.7007919091689725,0.8967344712025562,0.6126331024501188,0.0785111662531017,0.8447945067151368,0.7892587120882941,0.6693420282585067,0.6811466028509,0.5503538599202799,0.3942371116125673,0.2990313133588646
0.1479208646272211,0.7088064116019465,0.894708128750682,0.6026051897032978,0.0852605459057071,0.8477229122488135,0.7894325193360563,0.6690912131092718,0.6810945791280825,0.5498251037175629,0.3943759763929874,0.2988060373958098
0.1614764608902729,0.7293197214006297,0.8999298573766659,0.5838933112788173,0.0892307692307692,0.8619610219125518,0.7990788215868602,0.6817991806705125,0.6883258765997294,0.5557227690555601,0.39986113521958,0.3045731020500113
0.1639494412896134,0.7448716725503292,0.9105291871249316,0.5740721596195595,0.0838709677419354,0.8771079470867413,0.8096810637003562,0.6935038876348132,0.6952450317344709,0.561295045961116,0.4035757680958167,0.3089434557332732
0.1408682908957684,0.7463982444423243,0.9314940378770168,0.5862710637857954,0.0579652605459056,0.8914470362516408,0.8250630051273137,0.7041217289524286,0.7052856102382687,0.5677621410558854,0.4054157264363826,0.3060148682135616
0.12254991756732,0.7447762618070795,0.945678435040137,0.5974361625142148,0.0390074441687344,0.8998283348480258,0.8329712349004953,0.7128166541259091,0.7160024971386953,0.5783779386642804,0.4124631140427009,0.3067357512953368
0.1361971056970141,0.7631905352542698,0.949107629958694,0.5798614700713326,0.0441687344913151,0.9117439159850552,0.8075084731033284,0.7058774349970738,0.717875351160129,0.5918408850565362,0.4309321298385697,0.32399189006533
0.1848323868840446,0.7928632764049233,0.9319616553659108,0.5363382611392536,0.0814888337468982,0.916287993537312,0.7647518901538193,0.692082601789148,0.7209967745291853,0.6134385422598226,0.4653358791876411,0.3640009011038522
0.241344568602308,0.8239671787043221,0.9092822071545476,0.4875426444743099,0.1265508684863523,0.9181056245582144,0.7181715477535412,0.6931694674358332,0.7413900738736864,0.6531766045717075,0.5140427009199793,0.4200045055192611
0.3055504671185198,0.8320770918805458,0.8612734782947549,0.4469140907681174,0.1918610421836228,0.8913460567504796,0.6688102893890675,0.747094724521361,0.8136510248673395,0.7279752704791345,0.5800034716195105,0.4851993692273035
0.4060267448250594,0.854498616544223,0.7941703686384538,0.3780626486095317,0.2891315136476426,0.8596384933858426,0.5757365082123924,0.8011871917063791,0.8874726875455209,0.8152607174814935,0.6698489845512933,0.5790042802432981
0.5481773218538193,0.909836847629043,0.718338399189463,0.2678589889382818,0.4143920595533498,0.8398465111582348,0.4586773268445294,0.8104673522280745,0.9141088336281344,0.8853412511185228,0.7761846901579588,0.7038522189682361
0.7099285583440189,0.92920522850873,0.5965240433325539,0.1660291533133464,0.5795533498759305,0.7711804503685751,0.3290171200139045,0.7539503386004515,0.8698886692331703,0.9011225900919224,0.8506509286582191,0.8089659833295787
0.8710386517677231,0.9350252838469612,0.4642662302236771,0.0720562390158172,0.7510669975186103,0.688579218418661,0.1718953680368471,0.6123233843324136,0.7463843512641765,0.8392174408199787,0.8532893594862004,0.8609146204100022
0.956493863344935,0.9307318004007252,0.3879666432857921,0.02615527757676,0.8459553349875929,0.6368777138240937,0.0506648127226905,0.419112114371708,0.56820310061388,0.6910030098430001,0.749314355146676,0.8121649020049561
0.945502839347866,0.8782558916133957,0.3544540565817161,0.0607877597436162,0.8614392059553349,0.5873977582550741,0.0,0.2408661483153582,0.3784725834980751,0.4977629545269665,0.5732338135740322,0.6745212885785088
0.8541857483055505,0.6641541837610915,0.2572675551398956,0.2282642406699059,0.8737468982630272,0.411188528728668,0.1449552446337011,0.1988128082936209,0.2581417126209552,0.3234361018465794,0.3854191980558931,0.4894345573327326
0.708005129144532,0.4217154851636295,0.1836178006390772,0.442158585754161,0.8414888337468982,0.2351812582045844,0.3587381593812462,0.1716411671264943,0.172198522526272,0.1921418693565444,0.23176531852109,0.3146654651948637
0.5206081699945044,0.3112298444804885,0.2527472527472527,0.6077742168923809,0.6959801488833746,0.2214480460466525,0.5075171634657165,0.0804280578546943,0.0826136718343565,0.0889937362726755,0.1220968581843429,0.1814372606442892
0.3550100751053306,0.2227840854880259,0.3214870236146832,0.7490954202419104,0.5623821339950372,0.2191255175199434,0.6124098374902233,0.0519187358916478,0.054364790344397,0.0466525665012609,0.0624891511890296,0.0911015994593376
0.2342919948708554,0.2003625608243488,0.4058919803600654,0.8294221027602605,0.4432754342431761,0.2619408260123195,0.6456070218128096,0.0505810550957277,0.0768390386016023,0.0638574798665907,0.057003992362437,0.0494706014868213
0.1489283751602857,0.217822726839042,0.4927129607980672,0.8680864261346015,0.3417369727047146,0.3274765222659799,0.668462674893543,0.0807624780536744,0.1243887212568931,0.1058325876515089,0.0777295608401319,0.0405046181572426
0.1021249313061,0.2732563686671119,0.5778972800249396,0.8644681071022434,0.2621339950372208,0.4119963647379582,0.7274702355088207,0.1788312014045647,0.2150660701279784,0.1760351419507036,0.1214719666724527,0.0616805586843884
0.0948891738413628,0.3704799160385459,0.6634712804925571,0.8158792515248631,0.2036724565756823,0.5189336564677369,0.7871730251151473,0.3091714739570269,0.3336801581521174,0.2689335394126739,0.1863218191286235,0.11259292633476
0.0795933321121084,0.4660814807747352,0.7545787545787546,0.772666184224129,0.1374689826302729,0.6284964152277088,0.7979490744764056,0.4125909204915977,0.4342420143585475,0.3501993004148702,0.2450963374414164,0.1603964856949763
0.0849972522440007,0.5431733613204848,0.8129530044423661,0.7279024087666701,0.1031265508684863,0.7071594466323335,0.779438602589728,0.4757127330490762,0.504890229944855,0.4071016025380298,0.2876931088352716,0.1962604190132913
0.1126579959699578,0.6189294914607385,0.8512976385316811,0.6712498707743203,0.0937965260545905,0.7719882863778652,0.7720517945598331,0.5396705961040047,0.5664863177608991,0.4565606442690962,0.3234507897934386,0.2297814823158369
0.1409598827624107,0.6881022803167637,0.8837970540098199,0.6178021296392019,0.0884367245657568,0.8297485610421085,0.7880420613539585,0.6166708469191539,0.6326084694620747,0.5063450744326039,0.3592084707516056,0.2637981527371029
0.1504854368932038,0.7112870909264384,0.894552256254384,0.5999172955649746,0.0866501240694788,0.8489346662627486,0.804988268010776,0.6680043474625866,0.673395068151077,0.536850239973969,0.3800381878146155,0.2827663888263123
0.1425169444953288,0.7044175174124607,0.8957212999766191,0.6080843585237259,0.0815880893300247,0.8461072402302332,0.7942122186495176,0.6766992726360671,0.6827593382582458,0.5438460912714553,0.3833709425446971,0.2837125478711421
0.1296940831654149,0.6936361034252457,0.8977476424284935,0.6212136875839966,0.0733498759305211,0.8416641421791377,0.7883896758494829,0.6758632221386172,0.684580168556862,0.5440494590417311,0.3827460510328068,0.2815498986258166
0.1299688587653416,0.699074515790478,0.9020341360766894,0.6181122712705469,0.0707692307692307,0.8473189942441683,0.790736073694273,0.6807123150238275,0.6900426594527105,0.5486048970959082,0.3856969276167332,0.2833070511376436
0.1380289430298589,0.7189199503864135,0.9113864858545708,0.6027085702470796,0.0692803970223324,0.8638796324346157,0.801164508560007,0.6962628542763982,0.7006034751846842,0.5573497112177662,0.3928831800034716,0.2898400540662311
0.1394944128961348,0.7251216486976434,0.9152053620138726,0.5985733484958131,0.0675930521091811,0.8696354640008078,0.8146345702615799,0.708552796588914,0.7108001248569349,0.5645896038395836,0.3987849331713244,0.2963280018022077
0.1295108994321304,0.7186337181566644,0.918400748187982,0.6076708363485992,0.0601488833746898,0.8682217509845501,0.8149821847571043,0.7075495359919739,0.7119966704817398,0.565769136907183,0.3982989064398542,0.2953818427573778
0.1183366917017768,0.7082339471424483,0.9194139194139194,0.6196629794272718,0.0533995037220843,0.8633747349288095,0.8082906057182585,0.7023660229077836,0.709187389449589,0.5626372732449362,0.3953480298559279,0.2905158819553953
0.119527385968126,0.7091880545749452,0.9191801106694724,0.6185257934456735,0.0541935483870967,0.8637786529334543,0.8113322325540974,0.7066298804447788,0.7125169077099157,0.5638168063125356,0.3961465023433432,0.2914169858076143
0.1286865726323502,0.7288426676843813,0.927441352973268,0.6027085702470796,0.0538957816377171,0.8795314551146116,0.8241070652646215,0.7195050581055096,0.7229216522734367,0.5719515171235663,0.402117687901406,0.2979049335435909
0.1299688587653416,0.7334223833603664,0.9300911854103344,0.5995037733898481,0.0529032258064516,0.8836716146622235,0.8329712349004953,0.7318786054677703,0.7292165227343669,0.5776864882453429,0.4063530637042181,0.3019599008785762
0.1210844477010441,0.7224501478866521,0.9287662691918012,0.610462111030704,0.0489330024813895,0.87700696758558,0.8283653428347961,0.7303737145723601,0.7272916449901156,0.576669649393964,0.4046172539489672,0.2989862581662536
0.1111009342370397,0.7127182520751837,0.9292338866806952,0.6213170681277783,0.0432754342431761,0.8721599515298395,0.8183714260884679,0.7203411086029595,0.7221933201539903,0.5725209468803384,0.4008331886825204,0.2938950214012165
0.1140318739695915,0.7172979677511688,0.9304808666510794,0.617181846376512,0.0440694789081885,0.8753912955669998,0.8167202572347267,0.7210935540506647,0.7234418895016127,0.5725209468803384,0.4008331886825204,0.2937148006307727
0.1251144898333028,0.728938078427631,0.9305588028992284,0.6046728005789311,0.0500248138957816,0.8816520246389982,0.8258451377422438,0.7348883872585904,0.7323899698262408,0.5788253477588872,0.4051727130706475,0.2983554854697004
0.1297856750320571,0.7340902585631143,0.9307926116436754,0.599193631758503,0.0524069478908188,0.8844794506715136,0.8302772225601808,0.7435833124320709,0.7372281760482781,0.5829333767184577,0.4079152924839438,0.3019148456859653
0.121817182634182,0.719397004102662,0.9255708830176916,0.611702677556084,0.0514143920595533,0.8733717055437746,0.8219344746675936,0.7372293286514505,0.7331703256685049,0.580086227934597,0.4053115778510675,0.2981752646992566
0.1115588935702509,0.7010781413987215,0.9193359831657704,0.6274165202108963,0.0498263027295285,0.8596384933858426,0.8082037020943773,0.7239361257419948,0.7252106960774114,0.5735377857317172,0.3994098246832147,0.2909664338815048
0.1169628137021432,0.7110008586966893,0.922843114332476,0.6189393156208002,0.0505210918114143,0.8671109764717762,0.8031632919092726,0.7261934620851099,0.7266153365934866,0.5740665419344342,0.4001041485853151,0.2900653300292858
0.131251144898333,0.7311325255223738,0.9271296079806718,0.6000206761087563,0.0554838709677419,0.8805412501262244,0.8117667506735031,0.7414931861884457,0.7368119862657372,0.5815504758805824,0.4055545912168026,0.2970939400765938
0.1329913903645356,0.7371434023471043,0.9306367391473774,0.5956786932699266,0.0541935483870967,0.8859941431889327,0.8227166072825237,0.7552880193963716,0.7450837581937364,0.5878955503131863,0.4095469536538795,0.3029511151160171
0.1198937534346949,0.7233088445758993,0.9304029304029304,0.6105654915744857,0.0473449131513647,0.878521660102999,0.8206309203093769,0.7514421871081013,0.7438872125689315,0.5865939965834215,0.4077417115084187,0.2998423068258617
0.1087195457043414,0.7097605190344433,0.9287662691918012,0.6242117233536649,0.0422828784119106,0.8702413410077755,0.8110715216824541,0.7396538750940557,0.7379565081677246,0.581428455218417,0.4031244575594515,0.2930840279342194
0.1101850155706173,0.7168209140349203,0.933364507832593,0.6195595988834902,0.040198511166253,0.87700696758558,0.810289389067524,0.7370621185519605,0.7372801997710957,0.5815098023265273,0.4028814441937164,0.2920928136967786
0.118794651034988,0.7353305982253602,0.9411581326474944,0.6047761811227127,0.0398014888337468,0.8918509542562859,0.8174154862257755,0.7422456316361509,0.7420663822703153,0.5852924428536566,0.4071168199965284,0.296057670646542
0.1192526103681993,0.7391470279553478,0.9438079650845608,0.6023984286157344,0.0384119106699751,0.8955871957992527,0.821413052924307,0.744920993227991,0.745916137758818,0.5887496949483446,0.4096511022391946,0.2989412029736427
0.1078952189045612,0.727697738765385,0.944197646325306,0.6150108549570971,0.0319602977667493,0.8898313642330608,0.8130703050317198,0.7355572276565505,0.7411299552595983,0.5857805255023184,0.4057281721923277,0.2941202973642712
0.0992855834401904,0.7162484495754222,0.9421713038734314,0.6260725731417347,0.0286848635235731,0.8824598606482884,0.803510906404797,0.7267786974333249,0.7366038913744668,0.5819165378670789,0.4013539316090956,0.2888938950214012
0.1066129327715698,0.7236904875488981,0.9420933676252824,0.6179055101829836,0.0326550868486352,0.8862970816924164,0.8044668462674893,0.728116378229245,0.7387368640099886,0.5842756040022777,0.4026037146328762,0.2893444469475107
0.1176039567686389,0.7378112775498521,0.9442755825734548,0.6040525173162411,0.0372208436724565,0.8951832777946076,0.8146345702615799,0.7405735306412508,0.7484132764540631,0.5916781908403157,0.4086790487762541,0.2963280018022077
0.1222751419673932,0.7459211907260759,0.9468474787623724,0.5970226403390881,0.0381141439205955,0.9011410683631222,0.8206309203093769,0.7485996154167712,0.7567890958276975,0.5964776702188238,0.4120465197014407,0.3003829691371931
0.113848690236307,0.7377158668066025,0.9473150962512664,0.6062235087356559,0.0332506203473945,0.8971018883166716,0.8142869557660555,0.7457570437254409,0.7550723129747166,0.5942812982998454,0.4095469536538795,0.2959675602613201
0.1083531782377724,0.7283656139681329,0.944353518821604,0.6143905716944071,0.0321588089330024,0.8902352822377056,0.8066394368645173,0.7407407407407408,0.7522630319425658,0.5917188643943708,0.406387779899323,0.2908763234962829
0.1164132625022897,0.7345673122793628,0.9425609851141766,0.6065336503670009,0.0377171215880893,0.8923558517620922,0.8108108108108107,0.7485160103670261,0.7584538549578608,0.5950134222728382,0.4087484811664642,0.2925884208154989
0.1311595530316908,0.752313710523805,0.944509391317902,0.588545435748992,0.0444665012406947,0.9029586993840252,0.8230642217780482,0.7670763314104172,0.7707834772656332,0.6030667859757586,0.4145113695538969,0.2996170308628069
0.1321670635647554,0.7609006774162771,0.950588418673525,0.5832730280161273,0.041091811414392,0.9115419569827324,0.8313200660467541,0.7804531393696179,0.7794194152533556,0.6096152281786382,0.4182260024301337,0.3025456183825186
0.1220003663674665,0.7522182997805554,0.9522250798846544,0.5938178434818566,0.0345409429280396,0.9079066949409268,0.8270617884765794,0.7778613828275228,0.777910727291645,0.6072154884893842,0.4160388821385176,0.2985807614327551
0.1128411797032423,0.7404827783608434,0.9504325461772272,0.605293083841621,0.0306699751861041,0.900636170857316,0.8186321369601112,0.7750188111361925,0.7756216834876705,0.6037582363946962,0.4118035063357056,0.2928587519711647
0.1174207730353544,0.7469707089018225,0.9518353986439092,0.599193631758503,0.032258064516129,0.9048773099060892,0.8230642217780482,0.7848006019563581,0.7817084590573302,0.6063206703001708,0.4133310189203263,0.2926334760081099
0.1307931855651218,0.7629043030245206,0.9533941236068896,0.583066266928564,0.0385111662531017,0.914369383015248,0.8382723559572435,0.8036953431987293,0.7949224846530017,0.6140893191247051,0.4179482728692935,0.2988961477810318
0.1343652683641692,0.7635721782272684,0.9509780999142702,0.5806885144215859,0.0419851116625309,0.9131576290013126,0.8526983575215086,0.8225900844411002,0.8060035376131516,0.6215732530708533,0.4214893247700053,0.3034016670421266
0.1204433046345484,0.744299208090831,0.9470812875068194,0.5989868706709397,0.0369230769230769,0.9004342118549934,0.851568610411054,0.8275227823760555,0.808188533971491,0.6205970877735296,0.4193716368685992,0.2999324172110835
0.1121084447701044,0.7295105428871291,0.9420933676252824,0.6115992970123023,0.0356327543424317,0.8893264667272543,0.8460067784826626,0.8267703369283503,0.806731869732598,0.6177499389896689,0.4145808019441069,0.2932191935120523
0.1197105697014105,0.7307508825493751,0.9366378302548516,0.6067404114545643,0.0432754342431761,0.886499040694739,0.8508733814200051,0.837471783295711,0.8131307876391636,0.6197429431383714,0.4150668286755772,0.2942104077494931
0.1324418391646821,0.748020227077569,0.9399111526771102,0.590096143905717,0.0480397022332506,0.8978087448248004,0.864256539497697,0.8597943315776273,0.8276974300280928,0.6271048564223543,0.4198576636000695,0.3001126379815274
0.1345484520974537,0.7518366568075566,0.9412360688956434,0.5868913470484854,0.0483374689826302,0.900636170857316,0.873294516381333,0.8779366273722933,0.8388825304338778,0.6341413812738957,0.4237458774518313,0.3030862806938499
0.1256640410331562,0.7375250453201031,0.9371054477437456,0.5996071539336297,0.0461538461538461,0.8904372412400282,0.8696445641783263,0.8783546526210183,0.8395068151076892,0.6334092573009029,0.4212463114042701,0.2998423068258617
0.1169628137021432,0.7232134338326496,0.9328189540955498,0.6123229608187739,0.0441687344913151,0.8800363526204181,0.8630398887633614,0.8748432405317281,0.8368015815211738,0.6288131456926707,0.4163860440895678,0.2931290831268303
0.122183550100751,0.7297967751168782,0.933754189073338,0.6058099865605292,0.0464516129032258,0.8840755326668687,0.8699052750499696,0.8854610818493437,0.8434085943190095,0.6321483771251932,0.4177746918937685,0.2945257940977698
0.1359223300970873,0.7550806220780462,0.9427168576104744,0.5844102139977256,0.0481389578163771,0.9032616378875088,0.8865038672112627,0.90694757963381,0.8566746436374989,0.6401203937200033,0.4240930394028814,0.301239017796801
0.1363802894302985,0.767388607957256,0.9523809523809524,0.5773803370205728,0.0421836228287841,0.9160860345349894,0.891196662900843,0.9186522865981104,0.8622411819789826,0.6442284226795737,0.4260718625238674,0.3029060599234062
0.1267631434328631,0.7556530865375441,0.9509780999142702,0.5892690995554636,0.0379156327543424,0.9089164899525396,0.8846788911097593,0.9169801856032104,0.8607324940172719,0.6421133978687057,0.423051553549731,0.2997521964406398
0.1227331013006045,0.7422001717393378,0.9433403475956668,0.5987801095833764,0.0405955334987593,0.896899929314349,0.8731207091335709,0.9125491179667252,0.8591197586099262,0.6388595135442935,0.4201701093560145,0.2972741608470376
0.1305184099651951,0.7516458353210572,0.944509391317902,0.5892690995554636,0.0440694789081885,0.9026557608805412,0.8705136004171374,0.9172310007524456,0.8607324940172719,0.6400797201659482,0.4213157437944801,0.2989412029736427
0.1421505770287598,0.764621696403015,0.945288753799392,0.5757262483200661,0.0498263027295285,0.9100272644653136,0.8812027461545147,0.929771758214196,0.8681198626573718,0.646140079720166,0.4264190244749176,0.3052038747465645
0.1489283751602857,0.7670069649842574,0.9413919413919412,0.5705572211309832,0.0559801488833746,0.9088155104513784,0.8809420352828713,0.9354569015968563,0.8714493809176986,0.6493939640445783,0.4290921714980038,0.3087181797702185
0.1477376808939366,0.758801641064784,0.9357025952770632,0.5756228677762846,0.0590570719602977,0.9007371503584772,0.8625184670200747,0.925675110776691,0.8651545104567683,0.6452859350850078,0.4263495920847076,0.3058797026357288
0.1492031507602124,0.7558439080240436,0.9320395916140596,0.5764499121265377,0.0621339950372208,0.8967989498131879,0.8401842356826279,0.9127999331159602,0.8574029757569451,0.6394289433010656,0.4237111612567263,0.3032214462716828
0.1591866642242168,0.7641446426867666,0.9302470579066324,0.566318618835935,0.0686848635235731,0.9000302938503483,0.8326236204049708,0.91129504222055,0.8578711892623037,0.6403644350443342,0.4260371463287624,0.3072764136066682
0.1721927092874152,0.7725407880927393,0.9260385005065856,0.5544298563010441,0.0784119106699751,0.90174694537009,0.8360997653602155,0.9163113452052504,0.8605764228488192,0.6442690962336289,0.4304808193022045,0.3149357963505294
0.1816266715515662,0.7789333078904684,0.92331073182137,0.5456425100796031,0.0852605459057071,0.90336261738867,0.8302772225601808,0.90845247052922,0.8549578607845179,0.6426828276254779,0.4325985072036105,0.3192610948411805
0.1805275691518593,0.7772159145119741,0.922765178084327,0.5471932182363278,0.0849627791563275,0.9020498838735737,0.8105500999391675,0.8844578212524037,0.8402351472271357,0.636093711868543,0.4304461031070995,0.3177292182924082
0.1815350796849239,0.7752122889037306,0.9204270906398566,0.5477101209552362,0.0870471464019851,0.899525396344542,0.788476579473364,0.8612992224730373,0.8269170741858287,0.6301553729764907,0.4292657524735289,0.3181347150259067
0.1907858582157904,0.7774067359984735,0.9141921907879356,0.5413005272407733,0.0959801488833746,0.8966979703120266,0.7803945424524202,0.8503469609564418,0.8197378004369993,0.6294639225575531,0.4328762367644506,0.3247127731471052
0.2044330463454845,0.7860891136341953,0.9098277608915908,0.5288948619869741,0.1062034739454094,0.8984146218317681,0.7848266272703571,0.8456650781707215,0.8162522110082198,0.6312128853819247,0.4380836660302031,0.3332732597431854
0.2092874152775233,0.7858982921476959,0.9055412672433948,0.526206967848651,0.1115632754342431,0.8955871957992527,0.7799600243330147,0.8278572025750355,0.8057434189990635,0.6279996746115676,0.4395764624197188,0.3372381166929489
0.200860963546437,0.77540311039023,0.9040604785285636,0.5366484027705986,0.1079900744416873,0.8890235282237705,0.7620578778135048,0.7974249644678538,0.7873790448444491,0.6178312860977793,0.4364172886651624,0.3334985357062401
0.194815900348049,0.7631905352542698,0.8993063673914738,0.5466763155174196,0.1076923076923076,0.8795314551146116,0.7471104545059528,0.7724270545940974,0.7717199042763501,0.6088424306515903,0.4322860614476653,0.3300292858751971
0.1994870855468034,0.7607098559297778,0.8932273400358506,0.5454357489920397,0.1140446650124069,0.8742805210542258,0.7478925871208829,0.7644009698185771,0.7669337217771304,0.6083136744488734,0.4340218712029162,0.3345798603289029
0.212951089943213,0.7691060013357506,0.8886291013950587,0.5332368448258038,0.1242679900744416,0.8756942340704835,0.7564960458851133,0.765571440515007,0.7652169389241494,0.6116082323273407,0.4385349765665683,0.341473304798378
0.2184466019417475,0.7700601087682474,0.8847322889876081,0.5297219063372273,0.1297270471464019,0.8736746440472584,0.7571912748761623,0.7570437254410166,0.7599625429195714,0.6096559017326935,0.439888908175664,0.3439062851993692
0.2090126396775966,0.7599465699837802,0.884498480243161,0.54047348289052,0.1247642679900744,0.8681207714833888,0.7473711653775963,0.7340523367611403,0.7463843512641765,0.6005450256243391,0.4351327894462767,0.3385447172786663
